# Created by:        SpecsLab Prodigy, Version 4.84.1-r101483 
#
# XY-Serializer Export Settings:
#   Comment Prefix:           #
#   Output Meta Data:         yes
#   Energy Axis:              Kinetic Energy
#   Count Rate:               Counts per Second
#   Separate Scan Data:       no
#   Separate Channel Data:    no
#   External Channel Data:    yes
#   Transmission Function:    yes
#   Error Bar:                no
#   Operation Results:        yes
#   Time Zone Format:         UTC
#
# Group:                        L-serine pH 7 500 mM
#
# Region:                       VBM
# Spectrum ID:                  644
# Acquisition Date:             03/12/26 08:13:17 UTC
# Analysis Method:              XPS
# Analyzer:                     Phoibos
# Analyzer Lens:                LargeArea:3.5kV
# Analyzer Slit:                5:7x20\B:open
# Scan Mode:                    FixedAnalyzerTransmission
# Curves/Scan:                  1
# Values/Curve:                 251
# Dwell Time:                   0.1
# Excitation Energy:            830
# Kinetic Energy:               810
# Pass Energy:                  10
# Bias Voltage:                 220
# Detector Voltage:             1920
# Eff. Workfunction:            0
# Source:                       Monochromator
# Comment:                      

# Cycle: 0
#
# Number of Scans: 2

# Cycle: 0, Curve: 0
#
# Acquisition Date:             03/12/26 08:13:17 UTC
# ColumnLabels:                 energy counts/s transmission
#
810  94.876865  7.3349451
810.1  72.19059  7.3348294
810.2  73.255519  7.3347138
810.3  46.838196  7.3345981
810.4  97.832145  7.3344825
810.5  66.104439  7.3343668
810.6  64.47666  7.3342512
810.7  109.57623  7.3341356
810.8  76.695745  7.33402
810.9  51.560721  7.3339044
811  59.218419  7.3337888
811.1  70.251386  7.3336732
811.2  84.331684  7.3335576
811.3  58.254676  7.333442
811.4  67.45598  7.3333264
811.5  80.132195  7.3332108
811.6  70.30961  7.3330953
811.7  62.56219  7.3329797
811.8  54.05031  7.3328642
811.9  50.315289  7.3327486
812  59.953256  7.3326331
812.1  49.093155  7.3325176
812.2  40.76964  7.332402
812.3  39.034625  7.3322865
812.4  39.570285  7.332171
812.5  50.94092  7.3320555
812.6  48.880255  7.33194
812.7  57.676425  7.3318245
812.8  57.3717  7.331709
812.9  51.19855  7.3315935
813  26.025588  7.3314781
813.1  50.647802  7.3313626
813.2  41.871394  7.3312471
813.3  55.038591  7.3311317
813.4  39.617089  7.3310162
813.5  52.012501  7.3309008
813.6  40.889635  7.3307854
813.7  63.12854  7.3306699
813.8  55.595179  7.3305545
813.9  47.173556  7.3304391
814  45.22181  7.3303237
814.1  42.353144  7.3302083
814.2  74.006176  7.3300929
814.3  92.991244  7.3299775
814.4  92.714385  7.3298621
814.5  91.072246  7.3297467
814.6  100.13663  7.3296314
814.7  94.05901  7.329516
814.8  71.97847  7.3294007
814.9  102.45743  7.3292853
815  111.4152  7.32917
815.1  110.33373  7.3290546
815.2  116.88728  7.3289393
815.3  88.54623  7.328824
815.4  134.52807  7.3287087
815.5  141.65472  7.3285933
815.6  134.93841  7.328478
815.7  176.38303  7.3283627
815.8  154.81516  7.3282474
815.9  218.37834  7.3281322
816  237.515  7.3280169
816.1  212.10214  7.3279016
816.2  241.9485  7.3277863
816.3  259.10073  7.3276711
816.4  215.3111  7.3275558
816.5  203.96552  7.3274406
816.6  264.00985  7.3273253
816.7  241.23766  7.3272101
816.8  226.52748  7.3270949
816.9  241.2946  7.3269797
817  218.79394  7.3268645
817.1  198.00788  7.3267492
817.2  205.60509  7.326634
817.3  235.51184  7.3265189
817.4  272.73814  7.3264037
817.5  229.90001  7.3262885
817.6  225.4117  7.3261733
817.7  218.18334  7.3260581
817.8  221.69194  7.325943
817.9  219.18165  7.3258278
818  171.20329  7.3257127
818.1  155.78579  7.3255975
818.2  146.77793  7.3254824
818.3  171.95439  7.3253673
818.4  216.96721  7.3252521
818.5  218.7405  7.325137
818.6  246.46412  7.3250219
818.7  229.71902  7.3249068
818.8  266.84352  7.3247917
818.9  308.20915  7.3246766
819  381.37775  7.3245615
819.1  463.91586  7.3244465
819.2  395.86765  7.3243314
819.3  412.66814  7.3242163
819.4  418.65352  7.3241013
819.5  512.72086  7.3239862
819.6  427.53558  7.3238712
819.7  504.08213  7.3237561
819.8  557.30209  7.3236411
819.9  544.15185  7.3235261
820  504.35358  7.3234111
820.1  543.03839  7.323296
820.2  512.95466  7.323181
820.3  518.17746  7.323066
820.4  449.62199  7.322951
820.5  519.23313  7.3228361
820.6  619.06339  7.3227211
820.7  484.64724  7.3226061
820.8  404.59111  7.3224911
820.9  444.43264  7.3223762
821  499.54741  7.3222612
821.1  451.41173  7.3221463
821.2  420.30372  7.3220313
821.3  493.80132  7.3219164
821.4  633.73644  7.3218015
821.5  598.65271  7.3216865
821.6  574.76734  7.3215716
821.7  555.21253  7.3214567
821.8  482.18506  7.3213418
821.9  368.96376  7.3212269
822  375.08418  7.321112
822.1  361.05815  7.3209971
822.2  378.02552  7.3208823
822.3  398.05365  7.3207674
822.4  342.59645  7.3206525
822.5  374.8131  7.3205377
822.6  405.0574  7.3204228
822.7  457.2178  7.320308
822.8  474.01727  7.3201931
822.9  458.01169  7.3200783
823  444.29506  7.3199635
823.1  450.18855  7.3198487
823.2  421.17987  7.3197338
823.3  440.29908  7.319619
823.4  431.43461  7.3195042
823.5  394.10803  7.3193894
823.6  360.38091  7.3192747
823.7  299.08319  7.3191599
823.8  255.27604  7.3190451
823.9  220.07627  7.3189303
824  244.12329  7.3188156
824.1  195.7007  7.3187008
824.2  150.08393  7.3185861
824.3  98.653505  7.3184713
824.4  81.535965  7.3183566
824.5  60.35711  7.3182419
824.6  50.29825  7.3181271
824.7  41.892395  7.3180124
824.8  21.02108  7.3178977
824.9  29.08935  7.317783
825  34.830084  7.3176683
825.1  37.153566  7.3175536
825.2  14.8242  7.3174389
825.3  18.204895  7.3173243
825.4  18.16632  7.3172096
825.5  16.280135  7.3170949
825.6  4.1912  7.3169803
825.7  2.21725  7.3168656
825.8  9.5362  7.316751
825.9  3.24655  7.3166363
826  3.6301  7.3165217
826.1  6.3699  7.3164071
826.2  11.277  7.3162925
826.3  8.638395  7.3161778
826.4  11.872105  7.3160632
826.5  11.076795  7.3159486
826.6  10.808155  7.315834
826.7  1.412869  7.3157194
826.8  4.914681  7.3156049
826.9  4.1451  7.3154903
827  5.8549  7.3153757
827.1  2.39165  7.3152612
827.2  8.804515  7.3151466
827.3  6.323085  7.3150321
827.4  6.15765  7.3149175
827.5  6.319305  7.314803
827.6  16.323095  7.3146885
827.7  4.0213  7.3145739
827.8  10.2174  7.3144594
827.9  8.0721  7.3143449
828  6.3699  7.3142304
828.1  10.37915  7.3141159
828.2  10.264195  7.3140014
828.3  9.356655  7.3138869
828.4  0  7.3137724
828.5  3.5448  7.313658
828.6  3.84685  7.3135435
828.7  10.59585  7.3134291
828.8  6.5828  7.3133146
828.9  3.463965  7.3132002
829  2.306335  7.3130857
829.1  4.6594  7.3129713
829.2  2.264  7.3128569
829.3  8.6769  7.3127424
829.4  6.27632  7.312628
829.5  9.78703  7.3125136
829.6  2.99575  7.3123992
829.7  4.31505  7.3122848
829.8  3.71475  7.3121704
829.9  7.3961  7.312056
830  5.4252  7.3119417
830.1  4.1489  7.3118273
830.2  4.52802  7.3117129
830.3  5.47198  7.3115986
830.4  8.24275  7.3114842
830.5  3.5107  7.3113699
830.6  4.35295  7.3112556
830.7  8.29395  7.3111412
830.8  11.7958  7.3110269
830.9  7.9868  7.3109126
831  6.110845  7.3107983
831.1  12.561605  7.310684
831.2  3.77045  7.3105697
831.3  5.63815  7.3104554
831.4  2.736  7.3103411
831.5  0  7.3102268
831.6  0  7.3101125
831.7  0  7.3099983
831.8  4.9577  7.309884
831.9  0.0423  7.3097698
832  2.65135  7.3096555
832.1  3.58715  7.3095413
832.2  7.51925  7.309427
832.3  7.34865  7.3093128
832.4  8.6769  7.3091986
832.5  5.2167  7.3090844
832.6  4.4004  7.3089702
832.7  10.302  7.308856
832.8  6.1109  7.3087418
832.9  9.225265  7.3086276
833  4.961435  7.3085134
833.1  3.80455  7.3083992
833.2  3.45945  7.308285
833.3  5  7.3081709
833.4  2.736  7.3080567
833.5  0  7.3079426
833.6  8.1151  7.3078284
833.7  3.46845  7.3077143
833.8  13.927695  7.3076002
833.9  9.488755  7.307486
834  0  7.3073719
834.1  2.00874  7.3072578
834.2  2.99126  7.3071437
834.3  2.9875  7.3070296
834.4  14.2342  7.3069155
834.5  3.2465  7.3068014
834.6  12.52375  7.3066873
834.7  11.957505  7.3065733
834.8  14.574095  7.3064592
834.9  5.47645  7.3063451
835  3.034265  7.3062311

