# Created by:        SpecsLab Prodigy, Version 4.84.1-r101483 
#
# XY-Serializer Export Settings:
#   Comment Prefix:           #
#   Output Meta Data:         yes
#   Energy Axis:              Kinetic Energy
#   Count Rate:               Counts per Second
#   Separate Scan Data:       no
#   Separate Channel Data:    no
#   External Channel Data:    yes
#   Transmission Function:    yes
#   Error Bar:                no
#   Operation Results:        yes
#   Time Zone Format:         UTC
#
# Group:                        L-serine pH 7 500 mM
#
# Region:                       O 1s ref
# Spectrum ID:                  621
# Acquisition Date:             03/12/26 06:09:44 UTC
# Analysis Method:              XPS
# Analyzer:                     Phoibos
# Analyzer Lens:                LargeArea:3.5kV
# Analyzer Slit:                5:7x20\B:open
# Scan Mode:                    FixedAnalyzerTransmission
# Curves/Scan:                  1
# Values/Curve:                 151
# Dwell Time:                   0.1
# Excitation Energy:            900
# Kinetic Energy:               360
# Pass Energy:                  20
# Bias Voltage:                 220
# Detector Voltage:             1920
# Eff. Workfunction:            0
# Source:                       Monochromator
# Comment:                      

# Cycle: 0
#
# Number of Scans: 1

# Cycle: 0, Curve: 0
#
# Acquisition Date:             03/12/26 06:09:44 UTC
# ColumnLabels:                 energy counts/s transmission
#
360  10295.986  16.44968
360.1  9902.5884  16.449603
360.2  10041.05  16.449526
360.3  9826.5761  16.449449
360.4  9438.2433  16.449371
360.5  9456.9342  16.449294
360.6  9034.3044  16.449217
360.7  9277.0159  16.449139
360.8  9063.9404  16.449062
360.9  8638.9151  16.448985
361  9068.8754  16.448907
361.1  8697.4878  16.448829
361.2  9162.4239  16.448752
361.3  9445.4332  16.448674
361.4  8702.3346  16.448596
361.5  8478.9876  16.448518
361.6  8717.5798  16.44844
361.7  8834.3772  16.448363
361.8  8996.9399  16.448285
361.9  9026.8036  16.448206
362  8927.4784  16.448128
362.1  8954.741  16.44805
362.2  9300.4168  16.447972
362.3  9414.8389  16.447894
362.4  9502.7509  16.447815
362.5  9391.8808  16.447737
362.6  9621.564  16.447658
362.7  9692.2212  16.44758
362.8  9667.399  16.447501
362.9  9615.4294  16.447423
363  9825.782  16.447344
363.1  10132.653  16.447265
363.2  9990.8904  16.447187
363.3  10367.263  16.447108
363.4  9943.8361  16.447029
363.5  10722.154  16.44695
363.6  10960.461  16.446871
363.7  10872.089  16.446792
363.8  11383.349  16.446713
363.9  11308.607  16.446634
364  11981.568  16.446554
364.1  13454.759  16.446475
364.2  14005.873  16.446396
364.3  16296.071  16.446316
364.4  19381.099  16.446237
364.5  22500.822  16.446158
364.6  28476.905  16.446078
364.7  36089.578  16.445998
364.8  46718.706  16.445919
364.9  58947.506  16.445839
365  69997.661  16.445759
365.1  79617.046  16.445679
365.2  84324.641  16.4456
365.3  82132.658  16.44552
365.4  76795.799  16.44544
365.5  68913.164  16.44536
365.6  59256.539  16.44528
365.7  53650.46  16.445199
365.8  53720.857  16.445119
365.9  56331.94  16.445039
366  63657.276  16.444959
366.1  72339.076  16.444878
366.2  83703.442  16.444798
366.3  97009.434  16.444718
366.4  108425.16  16.444637
366.5  120523.13  16.444556
366.6  134716.45  16.444476
366.7  145651.63  16.444395
366.8  157135.04  16.444314
366.9  164884.43  16.444234
367  169686.03  16.444153
367.1  172579.86  16.444072
367.2  171900.08  16.443991
367.3  167652.48  16.44391
367.4  159439.9  16.443829
367.5  150122.18  16.443748
367.6  135955.92  16.443667
367.7  124946.69  16.443586
367.8  109822.34  16.443504
367.9  94602.473  16.443423
368  80445.053  16.443342
368.1  67665.934  16.44326
368.2  56421.208  16.443179
368.3  46377.404  16.443097
368.4  39257.367  16.443016
368.5  32406.085  16.442934
368.6  27518.691  16.442852
368.7  23890.639  16.442771
368.8  21336.253  16.442689
368.9  19168.386  16.442607
369  17266.128  16.442525
369.1  16496.198  16.442443
369.2  15032.437  16.442361
369.3  13671.463  16.442279
369.4  12594.784  16.442197
369.5  12812.718  16.442115
369.6  11504.178  16.442033
369.7  10963.323  16.44195
369.8  10988.69  16.441868
369.9  10384.285  16.441786
370  10350.533  16.441703
370.1  10198.813  16.441621
370.2  9823.4211  16.441538
370.3  9962.384  16.441456
370.4  9757.7348  16.441373
370.5  9423.5975  16.441291
370.6  9463.8223  16.441208
370.7  9262.184  16.441125
370.8  9547.7743  16.441042
370.9  9258.6096  16.440959
371  9782.3019  16.440876
371.1  9375.9452  16.440793
371.2  9280.2104  16.44071
371.3  8669.4839  16.440627
371.4  9046.5112  16.440544
371.5  8885.5749  16.440461
371.6  9068.3227  16.440378
371.7  9452.3187  16.440295
371.8  8751.1591  16.440211
371.9  8909.3608  16.440128
372  8819.8309  16.440044
372.1  8710.5112  16.439961
372.2  8372.4648  16.439877
372.3  8546.9958  16.439794
372.4  9123.4869  16.43971
372.5  8690.204  16.439626
372.6  8560.3104  16.439543
372.7  8517.5607  16.439459
372.8  8637.3536  16.439375
372.9  8537.0532  16.439291
373  8824.877  16.439207
373.1  8509.278  16.439123
373.2  8276.5214  16.439039
373.3  8594.3207  16.438955
373.4  8682.5059  16.438871
373.5  8286.9182  16.438787
373.6  8641.3738  16.438703
373.7  8623.9104  16.438618
373.8  8322.012  16.438534
373.9  8289.3507  16.438449
374  8409.7285  16.438365
374.1  8629.9243  16.438281
374.2  8904.8411  16.438196
374.3  8525.473  16.438111
374.4  8853.2867  16.438027
374.5  8608.9733  16.437942
374.6  8378.9449  16.437857
374.7  8422.8107  16.437772
374.8  8694.7227  16.437688
374.9  8266.3566  16.437603
375  8174.9305  16.437518

