# Created by:        SpecsLab Prodigy, Version 4.84.1-r101483 
#
# XY-Serializer Export Settings:
#   Comment Prefix:           #
#   Output Meta Data:         yes
#   Energy Axis:              Kinetic Energy
#   Count Rate:               Counts per Second
#   Separate Scan Data:       no
#   Separate Channel Data:    no
#   External Channel Data:    yes
#   Transmission Function:    yes
#   Error Bar:                no
#   Operation Results:        yes
#   Time Zone Format:         UTC
#
# Group:                        L-serine pH 7 500 mM
#
# Region:                       VBM
# Spectrum ID:                  678
# Acquisition Date:             03/12/26 14:12:24 UTC
# Analysis Method:              XPS
# Analyzer:                     Phoibos
# Analyzer Lens:                LargeArea:3.5kV
# Analyzer Slit:                5:7x20\B:open
# Scan Mode:                    FixedAnalyzerTransmission
# Curves/Scan:                  1
# Values/Curve:                 251
# Dwell Time:                   0.1
# Excitation Energy:            650
# Kinetic Energy:               630
# Pass Energy:                  10
# Bias Voltage:                 220
# Detector Voltage:             1920
# Eff. Workfunction:            0
# Source:                       Monochromator
# Comment:                      

# Cycle: 0
#
# Number of Scans: 2

# Cycle: 0, Curve: 0
#
# Acquisition Date:             03/12/26 14:12:24 UTC
# ColumnLabels:                 energy counts/s transmission
#
630  221.24362  7.5540412
630.1  235.22123  7.5539133
630.2  238.41861  7.5537854
630.3  233.39511  7.5536575
630.4  208.57158  7.5535296
630.5  196.15909  7.5534018
630.6  193.38674  7.5532739
630.7  184.21182  7.5531461
630.8  216.43073  7.5530182
630.9  219.33211  7.5528904
631  207.62485  7.5527625
631.1  179.15714  7.5526347
631.2  158.21749  7.5525069
631.3  147.71757  7.552379
631.4  163.49493  7.5522512
631.5  192.71353  7.5521234
631.6  177.42669  7.5519956
631.7  174.13316  7.5518678
631.8  198.85303  7.5517401
631.9  127.00457  7.5516123
632  111.9819  7.5514845
632.1  127.90214  7.5513567
632.2  126.79528  7.551229
632.3  103.09852  7.5511012
632.4  168.98714  7.5509735
632.5  108.48417  7.5508458
632.6  93.601918  7.550718
632.7  130.33171  7.5505903
632.8  110.10552  7.5504626
632.9  88.19146  7.5503349
633  88.340165  7.5502072
633.1  122.19695  7.5500795
633.2  104.41102  7.5499518
633.3  103.71612  7.5498241
633.4  92.07891  7.5496965
633.5  81.013904  7.5495688
633.6  112.66329  7.5494411
633.7  102.79238  7.5493135
633.8  138.91193  7.5491858
633.9  142.58192  7.5490582
634  110.063  7.5489306
634.1  136.03887  7.548803
634.2  131.21094  7.5486753
634.3  160.65968  7.5485477
634.4  227.98581  7.5484201
634.5  207.32888  7.5482925
634.6  194.29875  7.5481649
634.7  234.62364  7.5480374
634.8  191.62879  7.5479098
634.9  224.89679  7.5477822
635  244.05284  7.5476546
635.1  347.06469  7.5475271
635.2  425.27648  7.5473995
635.3  393.41234  7.547272
635.4  336.32998  7.5471445
635.5  395.37874  7.5470169
635.6  500.20009  7.5468894
635.7  487.00485  7.5467619
635.8  505.07651  7.5466344
635.9  595.46125  7.5465069
636  593.54175  7.5463794
636.1  565.03599  7.5462519
636.2  588.18483  7.5461244
636.3  640.77265  7.545997
636.4  663.96499  7.5458695
636.5  660.04196  7.545742
636.6  676.93858  7.5456146
636.7  759.03029  7.5454872
636.8  657.00973  7.5453597
636.9  725.20993  7.5452323
637  679.53313  7.5451049
637.1  739.26801  7.5449774
637.2  749.52354  7.54485
637.3  708.5352  7.5447226
637.4  752.17137  7.5445952
637.5  784.97992  7.5444678
637.6  645.60666  7.5443405
637.7  570.20843  7.5442131
637.8  565.47218  7.5440857
637.9  598.31591  7.5439584
638  510.39985  7.543831
638.1  523.43653  7.5437037
638.2  529.26395  7.5435763
638.3  429.9831  7.543449
638.4  401.23762  7.5433217
638.5  437.94488  7.5431943
638.6  558.83858  7.543067
638.7  553.65892  7.5429397
638.8  581.34312  7.5428124
638.9  671.48134  7.5426851
639  745.00613  7.5425578
639.1  872.90817  7.5424306
639.2  1009.3294  7.5423033
639.3  1203.7014  7.542176
639.4  1145.3372  7.5420488
639.5  1318.2201  7.5419215
639.6  1308.2241  7.5417943
639.7  1453.5448  7.541667
639.8  1405.2211  7.5415398
639.9  1493.532  7.5414126
640  1380.6103  7.5412854
640.1  1463.8912  7.5411582
640.2  1377.5043  7.541031
640.3  1339.1048  7.5409038
640.4  1251.635  7.5407766
640.5  1336.2  7.5406494
640.6  1345.3587  7.5405222
640.7  1342.3173  7.540395
640.8  1370.5017  7.5402679
640.9  1265.0774  7.5401407
641  1242.2536  7.5400136
641.1  1209.7244  7.5398864
641.2  1351.4206  7.5397593
641.3  1341.4755  7.5396322
641.4  1381.4498  7.5395051
641.5  1355.0182  7.539378
641.6  1519.2749  7.5392509
641.7  1714.8475  7.5391238
641.8  1664.495  7.5389967
641.9  1520.7066  7.5388696
642  1402.7294  7.5387425
642.1  1254.1468  7.5386154
642.2  1191.1356  7.5384884
642.3  1218.9348  7.5383613
642.4  1222.2422  7.5382343
642.5  1268.4446  7.5381072
642.6  1247.4083  7.5379802
642.7  1446.9851  7.5378532
642.8  1379.2534  7.5377261
642.9  1463.9407  7.5375991
643  1532.6019  7.5374721
643.1  1547.5644  7.5373451
643.2  1580.0025  7.5372181
643.3  1516.9645  7.5370911
643.4  1326.1541  7.5369641
643.5  1114.7344  7.5368372
643.6  995.90035  7.5367102
643.7  987.8602  7.5365832
643.8  767.2682  7.5364563
643.9  732.9569  7.5363293
644  597.93269  7.5362024
644.1  457.17795  7.5360755
644.2  345.09871  7.5359485
644.3  222.4622  7.5358216
644.4  237.38904  7.5356947
644.5  181.24035  7.5355678
644.6  168.92582  7.5354409
644.7  103.80387  7.535314
644.8  119.06558  7.5351871
644.9  115.47436  7.5350603
645  47.526174  7.5349334
645.1  61.967061  7.5348065
645.2  76.64288  7.5346797
645.3  81.46718  7.5345528
645.4  54.327765  7.534426
645.5  27.743525  7.5342991
645.6  23.8475  7.5341723
645.7  23.2503  7.5340455
645.8  11.53675  7.5339187
645.9  23.208665  7.5337919
646  44.268235  7.5336651
646.1  22.14021  7.5335383
646.2  14.020555  7.5334115
646.3  5.72795  7.5332847
646.4  17.897735  7.5331579
646.5  10.77025  7.5330312
646.6  13.84685  7.5329044
646.7  11.2422  7.5327777
646.8  5.515015  7.5326509
646.9  6.791335  7.5325242
647  1.4129  7.5323974
647.1  8.93215  7.5322707
647.2  13.25615  7.532144
647.3  11.5732  7.5320173
647.4  4.9532  7.5318906
647.5  6.8767  7.5317639
647.6  12.13635  7.5316372
647.7  7.09335  7.5315105
647.8  8.9404  7.5313838
647.9  10.3791  7.5312572
648  10.77035  7.5311305
648.1  8.85055  7.5310039
648.2  2.85985  7.5308772
648.3  7.60835  7.5307506
648.4  6.1532  7.5306239
648.5  12.263975  7.5304973
648.6  4.617075  7.5303707
648.7  16.6214  7.5302441
648.8  26.86845  7.5301175
648.9  13.3483  7.5299909
649  4.6594  7.5298643
649.1  7.8131  7.5297377
649.2  9.96145  7.5296111
649.3  8.676895  7.5294845
649.4  8.501755  7.529358
649.5  6.1962  7.5292314
649.6  13.761515  7.5291049
649.7  8.076585  7.5289783
649.8  8.251  7.5288518
649.9  7.5148  7.5287253
650  6.847  7.5285987
650.1  10.33614  7.5284722
650.2  8.591555  7.5283457
650.3  12.344855  7.5282192
650.4  13.12715  7.5280927
650.5  0  7.5279662
650.6  4.48125  7.5278397
650.7  20.170595  7.5277133
650.8  19.53558  7.5275868
650.9  5.421475  7.5274603
651  16.45515  7.5273339
651.1  7.43395  7.5272074
651.2  8.3831  7.527081
651.3  9.7833  7.5269546
651.4  15.770245  7.5268281
651.5  7.565355  7.5267017
651.6  2.6469  7.5265753
651.7  10.212965  7.5264489
651.8  8.038735  7.5263225
651.9  9.1014  7.5261961
652  4.05535  7.5260697
652.1  11.32375  7.5259433
652.2  4.6209  7.525817
652.3  3.115119  7.5256906
652.4  16.196181  7.5255642
652.5  10.6887  7.5254379
652.6  4.059795  7.5253116
652.7  4.059805  7.5251852
652.8  7.736  7.5250589
652.9  8.7147  7.5249326
653  2.43395  7.5248063
653.1  5.7235  7.5246799
653.2  13.07655  7.5245536
653.3  9.706965  7.5244273
653.4  9.488735  7.5243011
653.5  3.1196  7.5241748
653.6  6.8804  7.5240485
653.7  13.19595  7.5239222
653.8  1.80405  7.523796
653.9  1.6214  7.5236697
654  10.719  7.5235435
654.1  6.2897  7.5234172
654.2  6.8381  7.523291
654.3  4.5318  7.5231648
654.4  4.91539  7.5230386
654.5  15.46821  7.5229124
654.6  10.5528  7.5227861
654.7  15.3028  7.5226599
654.8  9.6164  7.5225338
654.9  4.1444  7.5224076
655  2.39165  7.5222814

