# Created by:        SpecsLab Prodigy, Version 4.84.1-r101483 
#
# XY-Serializer Export Settings:
#   Comment Prefix:           #
#   Output Meta Data:         yes
#   Energy Axis:              Kinetic Energy
#   Count Rate:               Counts per Second
#   Separate Scan Data:       no
#   Separate Channel Data:    no
#   External Channel Data:    yes
#   Transmission Function:    yes
#   Error Bar:                no
#   Operation Results:        yes
#   Time Zone Format:         UTC
#
# Group:                        L-serine pH 7 500 mM
#
# Region:                       O 1s ref
# Spectrum ID:                  691
# Acquisition Date:             03/12/26 15:32:42 UTC
# Analysis Method:              XPS
# Analyzer:                     Phoibos
# Analyzer Lens:                LargeArea:3.5kV
# Analyzer Slit:                5:7x20\B:open
# Scan Mode:                    FixedAnalyzerTransmission
# Curves/Scan:                  1
# Values/Curve:                 151
# Dwell Time:                   0.1
# Excitation Energy:            900
# Kinetic Energy:               360
# Pass Energy:                  20
# Bias Voltage:                 220
# Detector Voltage:             1920
# Eff. Workfunction:            0
# Source:                       Monochromator
# Comment:                      

# Cycle: 0
#
# Number of Scans: 1

# Cycle: 0, Curve: 0
#
# Acquisition Date:             03/12/26 15:32:42 UTC
# ColumnLabels:                 energy counts/s transmission
#
360  6930.1948  16.44968
360.1  6414.0954  16.449603
360.2  6554.9199  16.449526
360.3  6626.4764  16.449449
360.4  6471.1354  16.449371
360.5  6372.3761  16.449294
360.6  6635.3461  16.449217
360.7  6137.6597  16.449139
360.8  6213.547  16.449062
360.9  6097.9197  16.448985
361  6138.4194  16.448907
361.1  6661.1049  16.448829
361.2  6355.0943  16.448752
361.3  6059.3623  16.448674
361.4  6028.7517  16.448596
361.5  6284.2597  16.448518
361.6  6151.0457  16.44844
361.7  6207.9792  16.448363
361.8  6381.3053  16.448285
361.9  6228.5676  16.448206
362  6332.5082  16.448128
362.1  6224.954  16.44805
362.2  5842.6419  16.447972
362.3  5901.1663  16.447894
362.4  6329.6864  16.447815
362.5  6488.4107  16.447737
362.6  6126.5304  16.447658
362.7  6102.7389  16.44758
362.8  6616.8429  16.447501
362.9  6770.8218  16.447423
363  6655.8471  16.447344
363.1  6390.3819  16.447265
363.2  6546.6986  16.447187
363.3  6645.0059  16.447108
363.4  6476.1532  16.447029
363.5  6962.4398  16.44695
363.6  7035.5363  16.446871
363.7  7364.4832  16.446792
363.8  7122.1928  16.446713
363.9  7772.7911  16.446634
364  7827.8183  16.446554
364.1  7880.6627  16.446475
364.2  7927.9648  16.446396
364.3  9027.791  16.446316
364.4  10021.641  16.446237
364.5  11079.532  16.446158
364.6  12457.747  16.446078
364.7  15126.229  16.445998
364.8  19708.774  16.445919
364.9  26232.761  16.445839
365  34106.675  16.445759
365.1  41987.982  16.445679
365.2  50364.466  16.4456
365.3  55615.621  16.44552
365.4  58079.064  16.44544
365.5  54837.403  16.44536
365.6  50695.517  16.44528
365.7  44880.494  16.445199
365.8  42061.539  16.445119
365.9  41321.819  16.445039
366  45257.232  16.444959
366.1  50646.068  16.444878
366.2  57974.263  16.444798
366.3  66105.443  16.444718
366.4  75407.214  16.444637
366.5  83114.67  16.444556
366.6  91534.298  16.444476
366.7  98754.65  16.444395
366.8  106698.73  16.444314
366.9  111496.67  16.444234
367  115874.06  16.444153
367.1  116753.43  16.444072
367.2  115858.15  16.443991
367.3  114191.66  16.44391
367.4  108650.52  16.443829
367.5  100884.62  16.443748
367.6  92258.02  16.443667
367.7  82730.764  16.443586
367.8  73520.345  16.443504
367.9  63273.302  16.443423
368  54748.051  16.443342
368.1  47118.196  16.44326
368.2  39414.697  16.443179
368.3  32540.8  16.443097
368.4  26339.712  16.443016
368.5  22174.937  16.442934
368.6  19675.945  16.442852
368.7  17132.196  16.442771
368.8  14576.697  16.442689
368.9  13167.904  16.442607
369  11965.918  16.442525
369.1  11193.45  16.442443
369.2  10200.871  16.442361
369.3  9826.3845  16.442279
369.4  9205.2098  16.442197
369.5  8548.5839  16.442115
369.6  8232.3764  16.442033
369.7  8067.2495  16.44195
369.8  8023.0369  16.441868
369.9  7795.1806  16.441786
370  7122.4432  16.441703
370.1  6977.4137  16.441621
370.2  7077.6364  16.441538
370.3  7101.1401  16.441456
370.4  6714.8204  16.441373
370.5  6955.5928  16.441291
370.6  7035.4125  16.441208
370.7  6660.1773  16.441125
370.8  6791.6349  16.441042
370.9  6841.5142  16.440959
371  6485.5199  16.440876
371.1  6509.9095  16.440793
371.2  6153.8682  16.44071
371.3  6015.7579  16.440627
371.4  6025.8286  16.440544
371.5  6285.3684  16.440461
371.6  6416.7778  16.440378
371.7  5970.8773  16.440295
371.8  6184.1595  16.440211
371.9  6260.9973  16.440128
372  6275.7895  16.440044
372.1  6243.5827  16.439961
372.2  6689.2548  16.439877
372.3  5956.4306  16.439794
372.4  6009.8902  16.43971
372.5  5614.4468  16.439626
372.6  5978.5796  16.439543
372.7  5926.6884  16.439459
372.8  5914.0406  16.439375
372.9  5905.6932  16.439291
373  6172.9328  16.439207
373.1  6313.7692  16.439123
373.2  6015.5759  16.439039
373.3  5701.4762  16.438955
373.4  5831.3808  16.438871
373.5  5742.2779  16.438787
373.6  5764.5375  16.438703
373.7  5949.4803  16.438618
373.8  6194.2289  16.438534
373.9  6045.5872  16.438449
374  5854.4877  16.438365
374.1  5725.6419  16.438281
374.2  5984.7679  16.438196
374.3  5908.2372  16.438111
374.4  5848.7129  16.438027
374.5  5487.8171  16.437942
374.6  6099.5775  16.437857
374.7  5833.3717  16.437772
374.8  6087.7119  16.437688
374.9  5962.1203  16.437603
375  6284.6776  16.437518

