# Created by:        SpecsLab Prodigy, Version 4.84.1-r101483 
#
# XY-Serializer Export Settings:
#   Comment Prefix:           #
#   Output Meta Data:         yes
#   Energy Axis:              Kinetic Energy
#   Count Rate:               Counts per Second
#   Separate Scan Data:       no
#   Separate Channel Data:    no
#   External Channel Data:    yes
#   Transmission Function:    yes
#   Error Bar:                no
#   Operation Results:        yes
#   Time Zone Format:         UTC
#
# Group:                        L-serine pH 7 500 mM
#
# Region:                       O 1s 70
# Spectrum ID:                  670
# Acquisition Date:             03/12/26 13:28:56 UTC
# Analysis Method:              XPS
# Analyzer:                     Phoibos
# Analyzer Lens:                LargeArea:3.5kV
# Analyzer Slit:                5:7x20\B:open
# Scan Mode:                    FixedAnalyzerTransmission
# Curves/Scan:                  1
# Values/Curve:                 151
# Dwell Time:                   0.1
# Excitation Energy:            600
# Kinetic Energy:               60
# Pass Energy:                  10
# Bias Voltage:                 220
# Detector Voltage:             1920
# Eff. Workfunction:            0
# Source:                       Monochromator
# Comment:                      

# Cycle: 0
#
# Number of Scans: 8

# Cycle: 0, Curve: 0
#
# Acquisition Date:             03/12/26 13:28:56 UTC
# ColumnLabels:                 energy counts/s transmission
#
60  43.687483  8.018195
60.1  47.633916  8.0187437
60.2  41.179724  8.0192905
60.3  45.689333  8.0198354
60.4  43.596825  8.0203785
60.5  28.944123  8.0209198
60.6  39.160446  8.0214592
60.7  41.662259  8.0219969
60.8  32.692542  8.0225327
60.9  33.201231  8.0230667
61  36.091239  8.023599
61.1  39.516109  8.0241294
61.2  35.015229  8.0246581
61.3  50.545937  8.025185
61.4  39.588739  8.0257101
61.5  37.271662  8.0262334
61.6  43.99597  8.026755
61.7  44.90078  8.0272749
61.8  33.930671  8.027793
61.9  43.80986  8.0283094
62  42.931581  8.028824
62.1  37.466972  8.0293369
62.2  45.033293  8.0298481
62.3  53.492975  8.0303576
62.4  48.962561  8.0308653
62.5  48.912902  8.0313714
62.6  53.882064  8.0318758
62.7  56.130513  8.0323785
62.8  53.799005  8.0328795
62.9  51.679763  8.0333789
63  52.749003  8.0338765
63.1  51.384354  8.0343725
63.2  59.159183  8.0348669
63.3  54.018268  8.0353596
63.4  63.695981  8.0358506
63.5  62.903108  8.03634
63.6  62.528595  8.0368278
63.7  54.629278  8.037314
63.8  83.109461  8.0377985
63.9  68.174526  8.0382814
64  70.012419  8.0387627
64.1  74.258746  8.0392424
64.2  94.020141  8.0397205
64.3  99.757502  8.040197
64.4  105.08076  8.0406719
64.5  149.70674  8.0411453
64.6  187.33966  8.041617
64.7  209.95301  8.0420872
64.8  286.90331  8.0425558
64.9  375.76909  8.0430229
65  568.47558  8.0434884
65.1  857.55086  8.0439524
65.2  1334.8897  8.0444148
65.3  1974.7161  8.0448757
65.4  2565.2022  8.045335
65.5  2865.9494  8.0457928
65.6  2460.3268  8.0462491
65.7  1538.3402  8.0467039
65.8  770.55556  8.0471572
65.9  360.9284  8.0476089
66  212.40168  8.0480592
66.1  161.09949  8.0485079
66.2  138.67482  8.0489552
66.3  128.36488  8.049401
66.4  136.44793  8.0498453
66.5  136.27797  8.0502881
66.6  136.25829  8.0507295
66.7  140.82074  8.0511694
66.8  151.04912  8.0516078
66.9  153.53509  8.0520448
67  171.48483  8.0524803
67.1  168.41205  8.0529144
67.2  172.04188  8.053347
67.3  181.17114  8.0537782
67.4  142.35106  8.054208
67.5  131.88263  8.0546364
67.6  135.55255  8.0550633
67.7  136.03303  8.0554888
67.8  128.96684  8.0559129
67.9  113.32952  8.0563356
68  94.880837  8.0567569
68.1  104.47991  8.0571768
68.2  81.534348  8.0575953
68.3  68.814026  8.0580124
68.4  62.006317  8.0584281
68.5  58.953727  8.0588425
68.6  48.26158  8.0592554
68.7  53.601546  8.059667
68.8  62.764989  8.0600773
68.9  58.434956  8.0604862
69  40.673088  8.0608937
69.1  39.819877  8.0612999
69.2  42.144893  8.0617047
69.3  49.619308  8.0621082
69.4  39.471121  8.0625103
69.5  39.257245  8.0629112
69.6  33.919185  8.0633107
69.7  49.368813  8.0637088
69.8  49.462691  8.0641057
69.9  39.449661  8.0645012
70  46.109523  8.0648954
70.1  44.955144  8.0652883
70.2  42.758449  8.0656799
70.3  31.905254  8.0660702
70.4  44.900352  8.0664592
70.5  38.796564  8.066847
70.6  38.948877  8.0672334
70.7  39.054006  8.0676186
70.8  35.977911  8.0680024
70.9  46.445896  8.0683851
71  37.572071  8.0687664
71.1  43.563796  8.0691465
71.2  34.724394  8.0695253
71.3  50.939172  8.0699028
71.4  49.786701  8.0702791
71.5  36.04535  8.0706542
71.6  48.121083  8.071028
71.7  44.740662  8.0714006
71.8  39.84591  8.0717719
71.9  42.832245  8.072142
72  37.355073  8.0725109
72.1  40.109328  8.0728785
72.2  33.944421  8.0732449
72.3  34.898296  8.0736102
72.4  34.143317  8.0739742
72.5  38.933456  8.0743369
72.6  42.407239  8.0746985
72.7  34.893324  8.0750589
72.8  32.033286  8.0754181
72.9  40.610739  8.0757761
73  37.716039  8.0761329
73.1  41.738126  8.0764885
73.2  30.433599  8.0768429
73.3  30.37193  8.0771962
73.4  30.967669  8.0775483
73.5  34.208585  8.0778992
73.6  39.504413  8.0782489
73.7  40.904813  8.0785975
73.8  41.01238  8.0789449
73.9  37.927754  8.0792912
74  43.278597  8.0796363
74.1  41.945872  8.0799803
74.2  46.692588  8.0803231
74.3  34.702487  8.0806647
74.4  32.749346  8.0810053
74.5  37.626532  8.0813447
74.6  33.977436  8.0816829
74.7  39.06035  8.0820201
74.8  34.103461  8.0823561
74.9  34.058783  8.082691
75  46.3448  8.0830248

