# Created by:        SpecsLab Prodigy, Version 4.84.1-r101483 
#
# XY-Serializer Export Settings:
#   Comment Prefix:           #
#   Output Meta Data:         yes
#   Energy Axis:              Kinetic Energy
#   Count Rate:               Counts per Second
#   Separate Scan Data:       no
#   Separate Channel Data:    no
#   External Channel Data:    yes
#   Transmission Function:    yes
#   Error Bar:                no
#   Operation Results:        yes
#   Time Zone Format:         UTC
#
# Group:                        L-serine pH 7 500 mM
#
# Region:                       VBM
# Spectrum ID:                  690
# Acquisition Date:             03/12/26 15:29:51 UTC
# Analysis Method:              XPS
# Analyzer:                     Phoibos
# Analyzer Lens:                LargeArea:3.5kV
# Analyzer Slit:                5:7x20\B:open
# Scan Mode:                    FixedAnalyzerTransmission
# Curves/Scan:                  1
# Values/Curve:                 251
# Dwell Time:                   0.1
# Excitation Energy:            580
# Kinetic Energy:               560
# Pass Energy:                  10
# Bias Voltage:                 220
# Detector Voltage:             1920
# Eff. Workfunction:            0
# Source:                       Monochromator
# Comment:                      

# Cycle: 0
#
# Number of Scans: 2

# Cycle: 0, Curve: 0
#
# Acquisition Date:             03/12/26 15:29:51 UTC
# ColumnLabels:                 energy counts/s transmission
#
560  321.03166  7.6452448
560.1  339.87919  7.6451121
560.2  324.66834  7.6449795
560.3  226.45697  7.6448469
560.4  252.552  7.6447143
560.5  298.53689  7.6445817
560.6  305.38472  7.6444491
560.7  294.68991  7.6443165
560.8  255.63364  7.6441839
560.9  245.84541  7.6440513
561  218.26805  7.6439188
561.1  245.02291  7.6437862
561.2  268.25536  7.6436537
561.3  245.02407  7.6435211
561.4  228.04443  7.6433886
561.5  258.9091  7.643256
561.6  254.2772  7.6431235
561.7  276.69498  7.642991
561.8  271.41382  7.6428584
561.9  208.11185  7.6427259
562  197.80339  7.6425934
562.1  177.62425  7.6424609
562.2  188.32012  7.6423284
562.3  176.06196  7.6421959
562.4  186.71836  7.6420635
562.5  183.62741  7.641931
562.6  186.17215  7.6417985
562.7  210.74382  7.6416661
562.8  243.46582  7.6415336
562.9  260.38071  7.6414012
563  226.50427  7.6412687
563.1  283.70293  7.6411363
563.2  913.59988  7.6410039
563.3  1607.4808  7.6408714
563.4  1701.0697  7.640739
563.5  1600.9403  7.6406066
563.6  1501.5024  7.6404742
563.7  1690.5187  7.6403418
563.8  1282.7947  7.6402094
563.9  570.91405  7.6400771
564  445.46281  7.6399447
564.1  401.50893  7.6398123
564.2  347.91465  7.63968
564.3  310.31541  7.6395476
564.4  296.54254  7.6394153
564.5  335.13462  7.6392829
564.6  332.36702  7.6391506
564.7  346.10096  7.6390182
564.8  413.03264  7.6388859
564.9  476.22377  7.6387536
565  462.60666  7.6386213
565.1  575.07963  7.638489
565.2  562.90901  7.6383567
565.3  556.89447  7.6382244
565.4  632.32965  7.6380921
565.5  784.94757  7.6379599
565.6  700.06381  7.6378276
565.7  821.02433  7.6376953
565.8  906.97218  7.6375631
565.9  852.1169  7.6374308
566  878.44835  7.6372986
566.1  991.91601  7.6371663
566.2  1069.5422  7.6370341
566.3  1022.3082  7.6369019
566.4  1101.9032  7.6367697
566.5  1062.6301  7.6366375
566.6  1057.8467  7.6365052
566.7  1097.4058  7.6363731
566.8  1045.2031  7.6362409
566.9  1004.6729  7.6361087
567  998.9867  7.6359765
567.1  1042.9663  7.6358443
567.2  1080.7719  7.6357122
567.3  1061.4612  7.63558
567.4  1086.5703  7.6354479
567.5  1079.7926  7.6353157
567.6  1065.976  7.6351836
567.7  871.99031  7.6350514
567.8  935.80129  7.6349193
567.9  890.81507  7.6347872
568  799.13305  7.6346551
568.1  714.71949  7.634523
568.2  770.66214  7.6343909
568.3  677.69307  7.6342588
568.4  779.08421  7.6341267
568.5  824.22979  7.6339946
568.6  783.16428  7.6338626
568.7  877.18885  7.6337305
568.8  1008.7551  7.6335984
568.9  1146.2991  7.6334664
569  1322.9712  7.6333343
569.1  1403.9327  7.6332023
569.2  1567.2208  7.6330703
569.3  1733.4579  7.6329382
569.4  1862.7675  7.6328062
569.5  2129.3358  7.6326742
569.6  2066.6878  7.6325422
569.7  2108.6247  7.6324102
569.8  2094.8853  7.6322782
569.9  2224.6747  7.6321462
570  2077.773  7.6320142
570.1  2062.1495  7.6318823
570.2  2036.199  7.6317503
570.3  1931.7805  7.6316183
570.4  1956.8867  7.6314864
570.5  1824.4119  7.6313544
570.6  1820.9293  7.6312225
570.7  1846.8909  7.6310906
570.8  1948.8469  7.6309586
570.9  1938.7975  7.6308267
571  2000.4825  7.6306948
571.1  2019.5543  7.6305629
571.2  1979.8341  7.630431
571.3  2002.0236  7.6302991
571.4  2065.6992  7.6301672
571.5  2121.6062  7.6300353
571.6  2439.6659  7.6299035
571.7  2596.1233  7.6297716
571.8  2386.8663  7.6296397
571.9  2005.9317  7.6295079
572  1779.4647  7.629376
572.1  1592.732  7.6292442
572.2  1643.8402  7.6291123
572.3  1841.4653  7.6289805
572.4  1848.2427  7.6288487
572.5  1869.2586  7.6287169
572.6  1942.9102  7.6285851
572.7  2239.3515  7.6284533
572.8  2344.1174  7.6283215
572.9  2249.0944  7.6281897
573  2417.6551  7.6280579
573.1  2241.6047  7.6279261
573.2  2185.3829  7.6277944
573.3  2295.1281  7.6276626
573.4  2142.8428  7.6275308
573.5  1928.0696  7.6273991
573.6  1751.1466  7.6272674
573.7  1488.2626  7.6271356
573.8  1269.1853  7.6270039
573.9  1114.2038  7.6268722
574  854.29037  7.6267405
574.1  661.98134  7.6266087
574.2  571.38377  7.626477
574.3  417.45315  7.6263454
574.4  387.1987  7.6262137
574.5  258.16231  7.626082
574.6  215.43134  7.6259503
574.7  170.31476  7.6258186
574.8  131.28366  7.625687
574.9  153.79167  7.6255553
575  141.84521  7.6254237
575.1  113.46014  7.625292
575.2  92.836481  7.6251604
575.3  85.38484  7.6250288
575.4  85.54335  7.6248971
575.5  50.033585  7.6247655
575.6  54.68974  7.6246339
575.7  43.029085  7.6245023
575.8  53.549305  7.6243707
575.9  28.67549  7.6242391
576  26.93237  7.6241076
576.1  20.719005  7.623976
576.2  24.92288  7.6238444
576.3  19.5621  7.6237128
576.4  21.89315  7.6235813
576.5  24.175425  7.6234497
576.6  26.850765  7.6233182
576.7  27.55331  7.6231867
576.8  31.800265  7.6230551
576.9  22.186285  7.6229236
577  12.81751  7.6227921
577.1  22.98304  7.6226606
577.2  21.085  7.6225291
577.3  21.7497  7.6223976
577.4  22.5609  7.6222661
577.5  12.43395  7.6221346
577.6  14.5318  7.6220031
577.7  16.0641  7.6218717
577.8  25.60027  7.6217402
577.9  27.42572  7.6216088
578  29.280305  7.6214773
578.1  25.46441  7.6213459
578.2  27.105395  7.6212144
578.3  24.6051  7.621083
578.4  19.02055  7.6209516
578.5  11.1999  7.6208202
578.6  17.06  7.6206888
578.7  10.204045  7.6205574
578.8  18.710924  7.620426
578.9  19.880631  7.6202946
579  25.59585  7.6201632
579.1  19.23425  7.6200318
579.2  16.923405  7.6199004
579.3  14.701745  7.6197691
579.4  10.38735  7.6196377
579.5  18.11065  7.6195064
579.6  16.710465  7.619375
579.7  12.097835  7.6192437
579.8  9.52355  7.6191124
579.9  27.39164  7.618981
580  15.56551  7.6188497
580.1  6.876645  7.6187184
580.2  7.736005  7.6185871
580.3  10.170655  7.6184558
580.4  11.408445  7.6183245
580.5  19.0598  7.6181933
580.6  20.25965  7.618062
580.7  21.41294  7.6179307
580.8  16.39951  7.6177994
580.9  14.79595  7.6176682
581  24.783315  7.6175369
581.1  16.662935  7.6174057
581.2  23.1248  7.6172745
581.3  26.53534  7.6171432
581.4  28.62111  7.617012
581.5  22.2768  7.6168808
581.6  26.32826  7.6167496
581.7  29.782575  7.6166184
581.8  18.506235  7.6164872
581.9  28.79178  7.616356
582  35.135915  7.6162248
582.1  18.467735  7.6160937
582.2  13.24276  7.6159625
582.3  15.98698  7.6158313
582.4  11.67261  7.6157002
582.5  22.2892  7.615569
582.6  15.31092  7.6154379
582.7  16.11463  7.6153067
582.8  11.74455  7.6151756
582.9  24.0642  7.6150445
583  18.7578  7.6149134
583.1  33.45055  7.6147823
583.2  12.53575  7.6146512
583.3  8.97445  7.6145201
583.4  11.966445  7.614389
583.5  6.833605  7.6142579
583.6  9.106595  7.6141268
583.7  23.332525  7.6139958
583.8  15.85487  7.6138647
583.9  22.08956  7.6137337
584  19.8762  7.6136026
584.1  15.384315  7.6134716
584.2  32.267035  7.6133405
584.3  19.995545  7.6132095
584.4  7.603905  7.6130785
584.5  20.856295  7.6129475
584.6  21.152425  7.6128165
584.7  23.2562  7.6126855
584.8  15.67973  7.6125545
584.9  5.98325  7.6124235
585  14.404835  7.6122925

