# Created by:        SpecsLab Prodigy, Version 4.84.1-r101483 
#
# XY-Serializer Export Settings:
#   Comment Prefix:           #
#   Output Meta Data:         yes
#   Energy Axis:              Kinetic Energy
#   Count Rate:               Counts per Second
#   Separate Scan Data:       no
#   Separate Channel Data:    no
#   External Channel Data:    yes
#   Transmission Function:    yes
#   Error Bar:                no
#   Operation Results:        yes
#   Time Zone Format:         UTC
#
# Group:                        L-serine pH 7 500 mM
#
# Region:                       O 1s 400
# Spectrum ID:                  636
# Acquisition Date:             03/12/26 07:30:03 UTC
# Analysis Method:              XPS
# Analyzer:                     Phoibos
# Analyzer Lens:                LargeArea:3.5kV
# Analyzer Slit:                5:7x20\B:open
# Scan Mode:                    FixedAnalyzerTransmission
# Curves/Scan:                  1
# Values/Curve:                 151
# Dwell Time:                   0.1
# Excitation Energy:            930
# Kinetic Energy:               390
# Pass Energy:                  10
# Bias Voltage:                 220
# Detector Voltage:             1920
# Eff. Workfunction:            0
# Source:                       Monochromator
# Comment:                      

# Cycle: 0
#
# Number of Scans: 4

# Cycle: 0, Curve: 0
#
# Acquisition Date:             03/12/26 07:30:03 UTC
# ColumnLabels:                 energy counts/s transmission
#
390  5480.5283  7.8784526
390.1  5401.7052  7.8783126
390.2  5113.4408  7.8781726
390.3  4962.5197  7.8780326
390.4  4966.8906  7.8778926
390.5  4935.9016  7.8777526
390.6  4684.7831  7.8776126
390.7  4699.0652  7.8774726
390.8  4599.9103  7.8773326
390.9  4586.6342  7.8771926
391  4439.1453  7.8770526
391.1  4357.3988  7.8769125
391.2  4445.6625  7.8767725
391.3  4306.672  7.8766325
391.4  4271.098  7.8764925
391.5  4336.9528  7.8763525
391.6  4389.6078  7.8762125
391.7  4381.9729  7.8760725
391.8  4395.7794  7.8759325
391.9  4370.7697  7.8757925
392  4381.5639  7.8756525
392.1  4453.9765  7.8755125
392.2  4410.2002  7.8753725
392.3  4423.4453  7.8752325
392.4  4391.7863  7.8750925
392.5  4390.9236  7.8749525
392.6  4466.7774  7.8748125
392.7  4416.9933  7.8746725
392.8  4469.5546  7.8745325
392.9  4419.2919  7.8743925
393  4533.6561  7.8742525
393.1  4526.6471  7.8741125
393.2  4615.6664  7.8739725
393.3  4649.742  7.8738325
393.4  4686.595  7.8736925
393.5  4545.3248  7.8735525
393.6  4611.1448  7.8734125
393.7  4789.8747  7.8732725
393.8  4857.7093  7.8731325
393.9  5129.6516  7.8729925
394  5136.0214  7.8728525
394.1  5220.4327  7.8727125
394.2  5549.3528  7.8725725
394.3  5618.6125  7.8724325
394.4  5943.3129  7.8722925
394.5  6603.262  7.8721525
394.6  7498.3898  7.8720125
394.7  8730.8337  7.8718725
394.8  10772.239  7.8717325
394.9  13952.158  7.8715926
395  17809.238  7.8714526
395.1  23157.424  7.8713126
395.2  29235.003  7.8711726
395.3  35118.499  7.8710326
395.4  38466.47  7.8708926
395.5  39701.504  7.8707526
395.6  37586.762  7.8706126
395.7  33366.381  7.8704726
395.8  29175.622  7.8703326
395.9  25260.571  7.8701926
396  23062.743  7.8700527
396.1  23579.09  7.8699127
396.2  26098.068  7.8697727
396.3  30337.231  7.8696327
396.4  34411.955  7.8694927
396.5  39889.996  7.8693527
396.6  45995.836  7.8692127
396.7  52238.879  7.8690728
396.8  58053.258  7.8689328
396.9  64057.84  7.8687928
397  69221.677  7.8686528
397.1  73917.337  7.8685128
397.2  77858.573  7.8683728
397.3  80095.163  7.8682329
397.4  81752.894  7.8680929
397.5  80754.485  7.8679529
397.6  77663.601  7.8678129
397.7  73325.609  7.867673
397.8  67716.852  7.867533
397.9  61665.252  7.867393
398  54975.847  7.867253
398.1  48774.855  7.8671131
398.2  41954.072  7.8669731
398.3  35427.951  7.8668331
398.4  29522.235  7.8666931
398.5  24339.267  7.8665532
398.6  20846.856  7.8664132
398.7  17362.422  7.8662732
398.8  14607.467  7.8661333
398.9  12364.721  7.8659933
399  11000.896  7.8658533
399.1  9404.9886  7.8657133
399.2  8627.072  7.8655734
399.3  7898.5149  7.8654334
399.4  7325.7305  7.8652935
399.5  6995.3572  7.8651535
399.6  6566.8975  7.8650135
399.7  6050.0967  7.8648736
399.8  5679.4729  7.8647336
399.9  5374.6547  7.8645936
400  5264.7512  7.8644537
400.1  5183.765  7.8643137
400.2  4873.8722  7.8641738
400.3  4751.24  7.8640338
400.4  4673.2649  7.8638939
400.5  4500.8437  7.8637539
400.6  4285.5607  7.8636139
400.7  4402.4085  7.863474
400.8  4437.2351  7.863334
400.9  4372.8312  7.8631941
401  4373.5615  7.8630541
401.1  4267.0181  7.8629142
401.2  4416.989  7.8627742
401.3  4094.7907  7.8626343
401.4  4134.0716  7.8624943
401.5  4267.2321  7.8623544
401.6  4264.8338  7.8622145
401.7  4190.2534  7.8620745
401.8  4148.4281  7.8619346
401.9  4250.2285  7.8617946
402  4166.6524  7.8616547
402.1  4070.4175  7.8615148
402.2  4066.0624  7.8613748
402.3  4003.353  7.8612349
402.4  4180.6896  7.8610949
402.5  4132.548  7.860955
402.6  4315.5194  7.8608151
402.7  4063.141  7.8606751
402.8  4137.7901  7.8605352
402.9  4208.3698  7.8603953
403  4107.6881  7.8602553
403.1  4034.0984  7.8601154
403.2  4101.0403  7.8599755
403.3  4001.9921  7.8598356
403.4  4228.3264  7.8596956
403.5  4029.4287  7.8595557
403.6  3916.5456  7.8594158
403.7  3977.4744  7.8592759
403.8  4179.9598  7.859136
403.9  3988.0281  7.858996
404  3914.6626  7.8588561
404.1  4119.0632  7.8587162
404.2  4009.6413  7.8585763
404.3  4011.4745  7.8584364
404.4  4001.0257  7.8582965
404.5  4037.1845  7.8581565
404.6  3909.238  7.8580166
404.7  4079.3065  7.8578767
404.8  4014.3262  7.8577368
404.9  3997.322  7.8575969
405  4041.1478  7.857457

