# Created by:        SpecsLab Prodigy, Version 4.84.1-r101483 
#
# XY-Serializer Export Settings:
#   Comment Prefix:           #
#   Output Meta Data:         yes
#   Energy Axis:              Kinetic Energy
#   Count Rate:               Counts per Second
#   Separate Scan Data:       no
#   Separate Channel Data:    no
#   External Channel Data:    yes
#   Transmission Function:    yes
#   Error Bar:                no
#   Operation Results:        yes
#   Time Zone Format:         UTC
#
# Group:                        L-serine pH 7 500 mM
#
# Region:                       Survey
# Spectrum ID:                  669
# Acquisition Date:             03/12/26 13:23:24 UTC
# Analysis Method:              XPS
# Analyzer:                     Phoibos
# Analyzer Lens:                LargeArea:3.5kV
# Analyzer Slit:                5:7x20\B:open
# Scan Mode:                    FixedAnalyzerTransmission
# Curves/Scan:                  1
# Values/Curve:                 1611
# Dwell Time:                   0.1
# Excitation Energy:            900
# Kinetic Energy:               100
# Pass Energy:                  20
# Bias Voltage:                 220
# Detector Voltage:             1920
# Eff. Workfunction:            0
# Source:                       Monochromator
# Comment:                      

# Cycle: 0
#
# Number of Scans: 1

# Cycle: 0, Curve: 0
#
# Acquisition Date:             03/12/26 13:23:24 UTC
# ColumnLabels:                 energy counts/s transmission
#
100  37.474632  16.070513
100.5  35.228292  16.074422
101  27.09644  16.078297
101.5  25.674676  16.082137
102  31.576724  16.085942
102.5  33.17244  16.089715
103  27.71212  16.093454
103.5  26.34016  16.09716
104  8.73728  16.100833
104.5  33.46388  16.104474
105  27.86708  16.108084
105.5  15.67472  16.111661
106  18.340676  16.115208
106.5  25.916364  16.118723
107  6.63164  16.122208
107.5  49.63068  16.125663
108  26.18048  16.129088
108.5  45.743  16.132483
109  26.12104  16.135848
109.5  16.978415  16.139185
110  34.931305  16.142493
110.5  43.099532  16.145772
111  20.838868  16.149023
111.5  10.97536  16.152246
112  14.352532  16.155442
112.5  35.647468  16.15861
113  19.990396  16.161751
113.5  69.061444  16.164865
114  25.47408  16.167953
114.5  34.904112  16.171014
115  27.319664  16.17405
115.5  55.451516  16.177059
116  53.659828  16.180043
116.5  28.9748  16.183002
117  35.656252  16.185935
117.5  29.981548  16.188844
118  38.860876  16.191728
118.5  21.622404  16.194588
119  24.302735  16.197424
119.5  44.616785  16.200236
120  69.7358  16.203024
120.5  53.659776  16.205788
121  36.814664  16.20853
121.5  22.889252  16.211248
122  26.93736  16.213944
122.5  27.142188  16.216617
123  32.15136  16.219268
123.5  12.27904  16.221896
124  15.14572  16.224503
124.5  38.1858  16.227087
125  24.517116  16.22965
125.5  8.937964  16.232192
126  34.59416  16.234713
126.5  38.86976  16.237212
127  26.62276  16.239691
127.5  20.647012  16.242149
128  38.473108  16.244587
128.5  45.92048  16.247004
129  26.93736  16.249401
129.5  47.12372  16.251778
130  70.177532  16.254136
130.5  51.126188  16.256474
131  30.90708  16.258793
131.5  70.167895  16.261092
132  76.176465  16.263373
132.5  70.760916  16.265634
133  65.49248  16.267877
133.5  30.683964  16.270101
134  41.35348  16.272307
134.5  38.47316  16.274494
135  56.294432  16.276664
135.5  25.364808  16.278815
136  36.36272  16.280949
136.5  27.055476  16.283065
137  45.182604  16.285163
137.5  25.213992  16.287244
138  40.642888  16.289308
138.5  44.885655  16.291355
139  65.875345  16.293385
139.5  57.465752  16.295398
140  24.808644  16.297395
140.5  38.714684  16.299375
141  29.24784  16.301339
141.5  44.21608  16.303286
142  79.89484  16.305217
142.5  48.9476  16.307133
143  38.03964  16.309032
143.5  118.80558  16.310916
144  93.965616  16.312784
144.5  91.57254  16.314637
145  62.857868  16.316474
145.5  61.0348  16.318296
146  57.83488  16.320103
146.5  58.108672  16.321896
147  29.57618  16.323673
147.5  53.427003  16.325435
148  66.418065  16.327183
148.5  31.50844  16.328916
149  44.106832  16.330635
149.5  67.656783  16.33234
150  74.981996  16.334031
150.5  64.566937  16.335707
151  58.404852  16.337369
151.5  51.34936  16.339018
152  28.91072  16.340653
152.5  58.18572  16.342274
153  44.08372  16.343882
153.5  64.36212  16.345476
154  55.368992  16.347057
154.5  58.541339  16.348625
155  90.359741  16.350179
155.5  87.794648  16.351721
156  51.30784  16.35325
156.5  72.265335  16.354766
157  69.562381  16.356269
157.5  95.428364  16.357759
158  66.185256  16.359237
158.5  64.785984  16.360703
159  71.599252  16.362156
159.5  91.517883  16.363596
160  107.57974  16.365025
160.5  60.18296  16.366442
161  43.180736  16.367846
161.5  67.092304  16.369239
162  63.577828  16.37062
162.5  108.80554  16.371989
163  73.5514  16.373347
163.5  41.070868  16.374693
164  72.53836  16.376027
164.5  83.0128  16.37735
165  102.1288  16.378662
165.5  74.2298  16.379962
166  91.6994  16.381252
166.5  92.47092  16.38253
167  92.141855  16.383797
167.5  140.23686  16.385054
168  93.373084  16.386299
168.5  80.43348  16.387534
169  78.126276  16.388758
169.5  102.40676  16.389972
170  116.41672  16.391175
170.5  83.450939  16.392367
171  88.851221  16.393549
171.5  136.07052  16.394721
172  196.62752  16.395883
172.5  144.80386  16.397034
173  118.99733  16.398175
173.5  122.00114  16.399306
174  86.673432  16.400428
174.5  40.956928  16.401539
175  76.129907  16.402641
175.5  106.34904  16.403733
176  141.66804  16.404815
176.5  122.68036  16.405887
177  147.46578  16.40695
177.5  56.841908  16.408004
178  90.555684  16.409048
178.5  107.90309  16.410082
179  149.68939  16.411108
179.5  216.91005  16.412124
180  179.198  16.413131
180.5  167.27398  16.414129
181  165.26926  16.415117
181.5  74.312338  16.416097
182  184.8487  16.417068
182.5  178.80632  16.41803
183  183.06256  16.418983
183.5  155.48839  16.419928
184  124.23856  16.420863
184.5  149.56188  16.421791
185  218.01302  16.422709
185.5  179.05128  16.423619
186  237.77624  16.42452
186.5  176.64118  16.425414
187  214.5205  16.426298
187.5  276.46769  16.427175
188  307.52032  16.428043
188.5  286.8324  16.428903
189  278.62313  16.429755
189.5  269.23028  16.430598
190  304.20229  16.431434
190.5  313.59568  16.432262
191  335.76145  16.433082
191.5  267.40216  16.433894
192  358.07573  16.434698
192.5  422.79783  16.435494
193  436.71499  16.436282
193.5  287.44731  16.437063
194  352.08764  16.437837
194.5  368.76474  16.438602
195  430.15829  16.43936
195.5  454.75882  16.440111
196  414.9095  16.440854
196.5  377.20568  16.44159
197  577.46397  16.442318
197.5  545.30709  16.443039
198  466.7225  16.443753
198.5  492.46114  16.44446
199  531.09347  16.445159
199.5  523.91029  16.445851
200  572.53016  16.446537
200.5  595.43299  16.447215
201  523.00809  16.447886
201.5  636.88133  16.44855
202  636.7417  16.449208
202.5  534.4623  16.449858
203  654.3295  16.450502
203.5  765.13995  16.451139
204  737.85852  16.451769
204.5  779.17453  16.452392
205  847.88952  16.453009
205.5  802.4983  16.453619
206  710.00471  16.454223
206.5  740.41974  16.45482
207  764.50736  16.45541
207.5  868.7218  16.455995
208  1039.9389  16.456572
208.5  987.2818  16.457144
209  1025.3078  16.457709
209.5  1062.361  16.458267
210  1004.9513  16.45882
210.5  1056.2288  16.459366
211  1154.0194  16.459906
211.5  1063.3147  16.460439
212  1111.8863  16.460967
212.5  1163.9162  16.461489
213  1252.4766  16.462004
213.5  1341.7334  16.462514
214  1227.9449  16.463017
214.5  1223.5452  16.463515
215  1308.1498  16.464007
215.5  1299.4435  16.464493
216  1397.333  16.464973
216.5  1349.8863  16.465447
217  1380.5372  16.465915
217.5  1463.5688  16.466378
218  1624.1866  16.466835
218.5  1665.2781  16.467287
219  1671.3447  16.467732
219.5  1458.768  16.468172
220  1553.15  16.468607
220.5  1583.0789  16.469036
221  1534.0424  16.469459
221.5  1668.6435  16.469877
222  1938.7085  16.47029
222.5  1929.9564  16.470697
223  1889.6441  16.471099
223.5  1956.1347  16.471495
224  1869.0969  16.471887
224.5  1990.2474  16.472272
225  1849.6024  16.472653
225.5  1788.6062  16.473028
226  1957.7373  16.473399
226.5  2057.2921  16.473764
227  2196.978  16.474123
227.5  2161.5642  16.474478
228  2207.5026  16.474828
228.5  2054.736  16.475172
229  2166.4406  16.475512
229.5  2456.5777  16.475847
230  2536.9657  16.476176
230.5  2518.5424  16.476501
231  2603.2824  16.476821
231.5  2778.2314  16.477136
232  2755.3687  16.477446
232.5  2542.6438  16.477751
233  2827.4832  16.478051
233.5  2731.6809  16.478347
234  2786.5493  16.478638
234.5  2967.8302  16.478924
235  2732.3235  16.479205
235.5  2662.5874  16.479482
236  2665.8689  16.479754
236.5  3197.5158  16.480021
237  3097.1932  16.480284
237.5  2905.6088  16.480543
238  3178.5134  16.480796
238.5  3150.8282  16.481046
239  3206.6239  16.48129
239.5  3133.8056  16.481531
240  3189.8489  16.481766
240.5  3292.8243  16.481998
241  3598.2291  16.482225
241.5  3390.2894  16.482448
242  3599.9521  16.482666
242.5  3404.6824  16.48288
243  3391.5641  16.483089
243.5  3429.2803  16.483295
244  3887.7612  16.483496
244.5  3438.7876  16.483693
245  3831.3957  16.483885
245.5  3856.6693  16.484074
246  3777.4635  16.484258
246.5  3868.5085  16.484438
247  3606.2305  16.484614
247.5  3683.5309  16.484786
248  3779.0042  16.484954
248.5  3891.3827  16.485118
249  4051.4186  16.485277
249.5  4049.1223  16.485433
250  3869.1488  16.485585
250.5  4521.1937  16.485733
251  4548.7119  16.485876
251.5  4231.2035  16.486016
252  4436.1296  16.486152
252.5  4261.513  16.486284
253  4384.514  16.486412
253.5  4371.655  16.486537
254  4361.4979  16.486657
254.5  4428.0561  16.486774
255  4653.8736  16.486887
255.5  4636.5477  16.486996
256  4513.9921  16.487101
256.5  4771.1038  16.487203
257  4839.8315  16.487301
257.5  4755.5808  16.487395
258  4807.1789  16.487486
258.5  4714.226  16.487573
259  4876.3849  16.487656
259.5  4768.7987  16.487736
260  4810.2377  16.487812
260.5  4859.2457  16.487884
261  5143.0874  16.487953
261.5  5223.0226  16.488018
262  4949.8611  16.48808
262.5  5049.8287  16.488139
263  4995.2572  16.488193
263.5  5182.1647  16.488245
264  5221.038  16.488293
264.5  5276.2891  16.488337
265  5495.4407  16.488378
265.5  5167.6287  16.488416
266  5651.3675  16.48845
266.5  5601.6092  16.488481
267  5365.7875  16.488509
267.5  5380.7203  16.488533
268  5262.0924  16.488554
268.5  5470.2118  16.488572
269  5457.2448  16.488586
269.5  5551.4806  16.488597
270  5747.0313  16.488605
270.5  5862.2734  16.488609
271  5747.7549  16.488611
271.5  5691.832  16.488609
272  5488.8355  16.488604
272.5  5589.2445  16.488596
273  5792.6676  16.488584
273.5  5946.7559  16.48857
274  6410.185  16.488552
274.5  5832.6708  16.488532
275  6267.4743  16.488508
275.5  6297.6593  16.488481
276  6303.0055  16.488451
276.5  6187.3251  16.488418
277  6118.2447  16.488382
277.5  6526.6305  16.488343
278  6468.6402  16.488301
278.5  6799.1588  16.488256
279  6764.1304  16.488208
279.5  6583.1087  16.488157
280  6657.3188  16.488103
280.5  6769.9703  16.488046
281  6896.7727  16.487987
281.5  6580.7226  16.487924
282  6473.6631  16.487858
282.5  6750.0914  16.48779
283  6968.1939  16.487719
283.5  6897.0681  16.487645
284  7073.5956  16.487568
284.5  6762.4313  16.487488
285  6742.1778  16.487406
285.5  7170.5289  16.48732
286  7455.0479  16.487232
286.5  7485.5605  16.487141
287  7424.6053  16.487048
287.5  7372.3142  16.486951
288  7268.5247  16.486852
288.5  7460.3856  16.486751
289  7696.6483  16.486646
289.5  7242.6632  16.486539
290  7115.027  16.486429
290.5  7425.1269  16.486317
291  7711.6764  16.486202
291.5  7484.6375  16.486084
292  7456.0717  16.485963
292.5  7698.4124  16.48584
293  7716.7778  16.485715
293.5  7948.9651  16.485587
294  7814.5961  16.485456
294.5  7853.4733  16.485323
295  7859.5049  16.485187
295.5  7928.2826  16.485049
296  7961.0998  16.484908
296.5  7846.1844  16.484764
297  8257.9414  16.484618
297.5  8338.0515  16.48447
298  8187.6973  16.484319
298.5  8044.1624  16.484166
299  8267.5905  16.48401
299.5  8414.9227  16.483852
300  8271.8994  16.483691
300.5  8655.371  16.483528
301  8338.8422  16.483363
301.5  8450.8761  16.483195
302  8504.2302  16.483025
302.5  8558.339  16.482852
303  8653.4852  16.482677
303.5  8804.224  16.4825
304  8907.9044  16.482321
304.5  9263.5811  16.482139
305  8746.0032  16.481954
305.5  8868.0757  16.481768
306  9003.1817  16.481579
306.5  8818.9885  16.481388
307  8906.5436  16.481194
307.5  9024.9317  16.480999
308  8871.1363  16.480801
308.5  8939.2974  16.480601
309  9044.8662  16.480398
309.5  9091.0945  16.480194
310  9304.456  16.479987
310.5  9166.0203  16.479778
311  8731.4869  16.479566
311.5  8986.8361  16.479353
312  9050.3574  16.479137
312.5  9642.4747  16.47892
313  9718.1647  16.4787
313.5  9817.0246  16.478478
314  9787.2348  16.478254
314.5  9465.6447  16.478027
315  9170.5872  16.477799
315.5  9161.41  16.477568
316  9331.9156  16.477336
316.5  9761.7864  16.477101
317  9928.0179  16.476864
317.5  9791.1541  16.476626
318  10023.681  16.476385
318.5  10135.135  16.476142
319  9952.5475  16.475897
319.5  10015.255  16.47565
320  9740.489  16.475401
320.5  10149.536  16.47515
321  9916.9985  16.474897
321.5  9902.7944  16.474642
322  9909.6547  16.474385
322.5  10051.086  16.474126
323  10095.019  16.473865
323.5  10231.542  16.473602
324  10410.305  16.473338
324.5  10183.5  16.473071
325  10295.278  16.472802
325.5  10002.639  16.472532
326  10468.02  16.472259
326.5  10585.882  16.471985
327  10791.219  16.471709
327.5  10250.217  16.47143
328  10016.154  16.47115
328.5  10898.867  16.470868
329  11201.954  16.470585
329.5  10682.125  16.470299
330  10594.278  16.470012
330.5  10499.877  16.469722
331  10631.711  16.469431
331.5  11014.077  16.469138
332  10607.378  16.468843
332.5  10595.451  16.468547
333  10703.836  16.468249
333.5  10547.164  16.467948
334  11080.253  16.467647
334.5  10587.034  16.467343
335  10546.866  16.467037
335.5  11006.493  16.46673
336  11149.464  16.466421
336.5  11492.298  16.466111
337  11299.031  16.465798
337.5  11221.953  16.465484
338  11691.378  16.465168
338.5  10836.891  16.464851
339  11525.107  16.464531
339.5  12166.326  16.46421
340  12463.108  16.463888
340.5  12892.065  16.463563
341  13009.82  16.463237
341.5  14125.255  16.46291
342  13805.156  16.46258
342.5  13928.117  16.462249
343  13546.229  16.461917
343.5  13291.856  16.461583
344  13121.23  16.461247
344.5  13000.333  16.460909
345  13317.808  16.46057
345.5  13022.958  16.460229
346  12661.926  16.459887
346.5  12283.084  16.459543
347  12397.396  16.459198
347.5  12451.261  16.458851
348  12286.648  16.458502
348.5  12229.991  16.458152
349  11529.843  16.4578
349.5  11490.833  16.457447
350  11369.15  16.457092
350.5  11049.976  16.456735
351  11089.531  16.456377
351.5  11192.011  16.456018
352  10490.633  16.455657
352.5  10398.003  16.455294
353  10358.572  16.45493
353.5  10069.083  16.454565
354  9776.376  16.454198
354.5  9341.3254  16.45383
355  9323.5566  16.45346
355.5  8975.3125  16.453088
356  9033.8382  16.452715
356.5  8933.7524  16.452341
357  8379.936  16.451965
357.5  8593.6378  16.451588
358  8295.2546  16.451209
358.5  7904.9122  16.450829
359  7344.4058  16.450447
359.5  6903.8608  16.450064
360  6148.2494  16.44968
360.5  5985.0548  16.449294
361  5672.4925  16.448907
361.5  5833.1331  16.448518
362  5871.0356  16.448128
362.5  6156.344  16.447737
363  6224.882  16.447344
363.5  6618.4824  16.44695
364  8204.6407  16.446554
364.5  15570.748  16.446158
365  43641.178  16.445759
365.5  48868.912  16.44536
366  53681.341  16.444959
366.5  87464.897  16.444556
367  102432.91  16.444153
367.5  79515.15  16.443748
368  39791.277  16.443342
368.5  17410.017  16.442934
369  10326.443  16.442525
369.5  7724.1409  16.442115
370  6684.5373  16.441703
370.5  5999.0851  16.441291
371  6079.7162  16.440876
371.5  5911.9408  16.440461
372  5448.1147  16.440044
372.5  5725.354  16.439626
373  5432.3643  16.439207
373.5  5326.4611  16.438787
374  5514.5925  16.438365
374.5  5445.1177  16.437942
375  5241.8601  16.437518
375.5  5323.8971  16.437092
376  5500.324  16.436666
376.5  5602.4837  16.436238
377  5482.2898  16.435808
377.5  5269.9558  16.435378
378  5429.2506  16.434946
378.5  5576.3541  16.434514
379  5564.2267  16.43408
379.5  5281.7873  16.433644
380  5458.1356  16.433208
380.5  5752.0749  16.43277
381  5824.5564  16.432332
381.5  5801.9211  16.431892
382  5950.0573  16.43145
382.5  5618.7214  16.431008
383  5525.4663  16.430565
383.5  5689.2229  16.43012
384  5974.2947  16.429674
384.5  5785.7076  16.429227
385  5714.0497  16.428779
385.5  5506.329  16.42833
386  5496.5897  16.427879
386.5  5691.5617  16.427428
387  5788.1044  16.426975
387.5  6056.2989  16.426521
388  5854.1327  16.426067
388.5  5806.833  16.425611
389  5517.7668  16.425153
389.5  5673.973  16.424695
390  5642.5592  16.424236
390.5  5641.2815  16.423775
391  6200.0598  16.423314
391.5  5772.4531  16.422851
392  5754.536  16.422388
392.5  5769.1934  16.421923
393  5835.9903  16.421457
393.5  6113.4876  16.42099
394  6186.3311  16.420522
394.5  6029.3562  16.420053
395  5909.8747  16.419583
395.5  5853.4783  16.419112
396  5716.3246  16.41864
396.5  6001.1291  16.418167
397  5897.086  16.417692
397.5  5958.3973  16.417217
398  6139.2681  16.416741
398.5  6011.2963  16.416263
399  6207.2637  16.415785
399.5  6262.1073  16.415306
400  6304.3821  16.414825
400.5  5999.5173  16.414344
401  6043.0212  16.413861
401.5  6272.9525  16.413378
402  6134.5432  16.412894
402.5  6448.379  16.412408
403  6247.6912  16.411922
403.5  6203.8795  16.411434
404  6052.8113  16.410946
404.5  6421.6136  16.410457
405  5946.8631  16.409966
405.5  5928.1297  16.409475
406  5829.5682  16.408983
406.5  6197.8424  16.40849
407  6241.7674  16.407996
407.5  6182.0106  16.407501
408  6421.9803  16.407005
408.5  6818.1959  16.406508
409  6487.6067  16.40601
409.5  6298.1304  16.405511
410  6439.1324  16.405011
410.5  6208.1954  16.40451
411  6665.5038  16.404009
411.5  6614.3356  16.403506
412  6846.4704  16.403002
412.5  6787.9762  16.402498
413  6565.4486  16.401993
413.5  6222.1117  16.401487
414  6413.5296  16.400979
414.5  6097.9031  16.400471
415  6343.5957  16.399962
415.5  6504.8601  16.399453
416  6379.787  16.398942
416.5  6096.1546  16.39843
417  6601.7683  16.397918
417.5  6380.6826  16.397405
418  6388.2185  16.39689
418.5  6537.2621  16.396375
419  6814.991  16.395859
419.5  6790.2206  16.395342
420  6864.5531  16.394825
420.5  6931.8597  16.394306
421  7150.8273  16.393787
421.5  6621.3248  16.393267
422  6641.0526  16.392746
422.5  6971.772  16.392224
423  7349.6689  16.391701
423.5  7207.3716  16.391177
424  7201.1683  16.390653
424.5  6752.6789  16.390128
425  7068.44  16.389602
425.5  6670.733  16.389075
426  6767.9032  16.388547
426.5  6688.6013  16.388018
427  7031.801  16.387489
427.5  6976.1136  16.386959
428  6801.2125  16.386428
428.5  6894.2133  16.385896
429  6951.2459  16.385364
429.5  6707.7444  16.38483
430  7252.9208  16.384296
430.5  7003.3998  16.383761
431  7190.156  16.383225
431.5  6755.6916  16.382689
432  7188.8947  16.382152
432.5  7033.437  16.381614
433  6988.0572  16.381075
433.5  7335.7098  16.380535
434  7075.4598  16.379995
434.5  7094.2575  16.379454
435  6690.1116  16.378912
435.5  7002.7873  16.378369
436  6975.7621  16.377826
436.5  6949.4852  16.377281
437  6971.3917  16.376736
437.5  7124.0725  16.376191
438  7139.0537  16.375644
438.5  7357.8584  16.375097
439  7169.9422  16.374549
439.5  7091.7303  16.374001
440  7439.7727  16.373451
440.5  7330.2282  16.372901
441  7387.2749  16.372351
441.5  7227.7008  16.371799
442  7485.1873  16.371247
442.5  7254.5616  16.370694
443  7582.865  16.37014
443.5  7830.6042  16.369586
444  7694.6243  16.369031
444.5  7521.6109  16.368475
445  7543.9984  16.367918
445.5  7241.6921  16.367361
446  7480.8676  16.366803
446.5  7654.9662  16.366245
447  7527.5413  16.365685
447.5  7902.4056  16.365125
448  7987.8766  16.364565
448.5  7912.1415  16.364003
449  7938.5775  16.363441
449.5  7729.0046  16.362879
450  7765.8354  16.362315
450.5  7642.2584  16.361751
451  7955.3242  16.361187
451.5  8132.8183  16.360621
452  7940.7583  16.360055
452.5  7694.692  16.359489
453  7689.7389  16.358921
453.5  7843.2504  16.358353
454  8378.5227  16.357785
454.5  8439.0708  16.357215
455  8131.9482  16.356645
455.5  8477.8068  16.356075
456  8772.9814  16.355503
456.5  8351.018  16.354932
457  8156.0769  16.354359
457.5  8517.3315  16.353786
458  8116.4104  16.353212
458.5  8452.0466  16.352638
459  8232.491  16.352063
459.5  8240.4807  16.351487
460  8447.1827  16.350911
460.5  8623.0971  16.350334
461  8321.0247  16.349756
461.5  8444.4368  16.349178
462  8675.5274  16.348599
462.5  8736.3142  16.34802
463  8656.9858  16.34744
463.5  8809.042  16.34686
464  8485.1934  16.346278
464.5  8414.3327  16.345697
465  8117.6161  16.345114
465.5  8554.3727  16.344531
466  8925.9575  16.343948
466.5  8689.0623  16.343364
467  8812.1123  16.342779
467.5  8642.1991  16.342193
468  9030.2344  16.341608
468.5  8429.3622  16.341021
469  8454.6106  16.340434
469.5  8306.5215  16.339846
470  8434.9376  16.339258
470.5  8981.5514  16.338669
471  9157.4122  16.33808
471.5  9303.0644  16.33749
472  9387.8593  16.3369
472.5  9226.6185  16.336309
473  9725.2914  16.335717
473.5  9527.333  16.335125
474  9539.3737  16.334532
474.5  10003.48  16.333939
475  10009.42  16.333345
475.5  9847.5312  16.332751
476  9671.3814  16.332156
476.5  9785.2237  16.33156
477  9166.107  16.330964
477.5  9748.2478  16.330368
478  10326.763  16.329771
478.5  9897.8707  16.329173
479  9989.454  16.328575
479.5  10099.89  16.327976
480  10401.676  16.327377
480.5  10430.118  16.326777
481  9732.7365  16.326177
481.5  9854.9818  16.325576
482  9988.0151  16.324975
482.5  9361.7924  16.324373
483  9373.414  16.323771
483.5  9550.1961  16.323168
484  9704.1256  16.322564
484.5  9448.7892  16.321961
485  9358.3428  16.321356
485.5  9487.7154  16.320751
486  9095.298  16.320146
486.5  8928.4581  16.31954
487  8922.0327  16.318934
487.5  8642.4601  16.318327
488  8948.6336  16.317719
488.5  8495.8573  16.317111
489  8638.375  16.316503
489.5  8892.218  16.315894
490  8705.6323  16.315285
490.5  8603.0185  16.314675
491  9080.5497  16.314065
491.5  9404.8473  16.313454
492  9380.9357  16.312842
492.5  8879.3882  16.312231
493  9345.9637  16.311618
493.5  9300.4437  16.311006
494  9129.2474  16.310392
494.5  10021.158  16.309779
495  10076.347  16.309165
495.5  10047.589  16.30855
496  10670.671  16.307935
496.5  11449.07  16.307319
497  12136.952  16.306703
497.5  12691.175  16.306087
498  13468.931  16.30547
498.5  12174.403  16.304853
499  11430.112  16.304235
499.5  10892.427  16.303617
500  11316.666  16.302998
500.5  11393.165  16.302379
501  11717.098  16.301759
501.5  12015.285  16.301139
502  11531.97  16.300519
502.5  11661.656  16.299898
503  11332.313  16.299276
503.5  11117.346  16.298654
504  9737.745  16.298032
504.5  9294.3487  16.297409
505  9027.7556  16.296786
505.5  8515.4536  16.296163
506  8292.0752  16.295539
506.5  8197.404  16.294914
507  7793.8743  16.29429
507.5  7689.7577  16.293664
508  7088.04  16.293039
508.5  6731.2606  16.292413
509  6038.8636  16.291786
509.5  5687.9762  16.291159
510  5063.0245  16.290532
510.5  4749.8237  16.289904
511  4059.1535  16.289276
511.5  3487.0901  16.288647
512  2789.7828  16.288018
512.5  2551.0511  16.287389
513  2008.3657  16.286759
513.5  1600.6733  16.286129
514  1440.676  16.285498
514.5  1209.2091  16.284867
515  987.59778  16.284236
515.5  890.38217  16.283604
516  718.19507  16.282972
516.5  745.6967  16.282339
517  685.01477  16.281706
517.5  573.82819  16.281073
518  684.31313  16.280439
518.5  559.49351  16.279805
519  654.70334  16.27917
519.5  657.9892  16.278536
520  682.25179  16.2779
520.5  659.84562  16.277265
521  637.73431  16.276629
521.5  585.01505  16.275992
522  590.31345  16.275355
522.5  601.42754  16.274718
523  504.19813  16.274081
523.5  525.72908  16.273443
524  534.40376  16.272804
524.5  447.34238  16.272166
525  451.72756  16.271527
525.5  431.97783  16.270887
526  576.36218  16.270247
526.5  537.31975  16.269607
527  476.52237  16.268967
527.5  473.54236  16.268326
528  432.71182  16.267685
528.5  514.07479  16.267043
529  424.44472  16.266401
529.5  437.53323  16.265759
530  470.28794  16.265117
530.5  454.1425  16.264474
531  458.86977  16.26383
531.5  403.92047  16.263187
532  488.99186  16.262543
532.5  475.29131  16.261898
533  466.11278  16.261254
533.5  426.45888  16.260608
534  446.71835  16.259963
534.5  441.09748  16.259317
535  554.51634  16.258671
535.5  532.22044  16.258025
536  465.46123  16.257378
536.5  411.221  16.256731
537  486.05258  16.256084
537.5  451.8381  16.255436
538  403.2082  16.254788
538.5  466.38511  16.25414
539  401.01761  16.253491
539.5  357.19564  16.252842
540  451.03529  16.252193
540.5  479.11534  16.251543
541  487.23856  16.250893
541.5  445.5006  16.250243
542  368.59263  16.249592
542.5  390.09088  16.248941
543  481.68921  16.24829
543.5  540.81566  16.247638
544  509.21302  16.246986
544.5  403.67747  16.246334
545  511.17204  16.245682
545.5  416.74559  16.245029
546  412.19362  16.244376
546.5  407.64235  16.243722
547  467.34236  16.243069
547.5  497.44658  16.242414
548  454.19901  16.24176
548.5  456.49103  16.241106
549  441.11588  16.240451
549.5  447.73526  16.239795
550  403.41412  16.23914
550.5  423.35005  16.238484
551  396.10752  16.237828
551.5  458.22121  16.237171
552  507.721  16.236515
552.5  497.92233  16.235858
553  512.57459  16.2352
553.5  462.41256  16.234543
554  413.901  16.233885
554.5  362.70845  16.233227
555  416.95358  16.232568
555.5  394.49599  16.23191
556  433.14699  16.231251
556.5  565.88862  16.230591
557  504.6644  16.229932
557.5  481.57534  16.229272
558  469.03979  16.228612
558.5  442.3327  16.227951
559  510.73535  16.227291
559.5  413.0762  16.22663
560  399.57603  16.225969
560.5  435.83759  16.225307
561  473.20491  16.224645
561.5  434.7724  16.223983
562  476.53526  16.223321
562.5  436.25891  16.222658
563  414.13781  16.221996
563.5  559.61684  16.221333
564  489.74968  16.220669
564.5  431.0859  16.220006
565  422.99351  16.219342
565.5  508.58174  16.218678
566  423.42453  16.218013
566.5  378.5585  16.217348
567  485.00569  16.216684
567.5  411.59993  16.216018
568  474.99389  16.215353
568.5  497.81802  16.214687
569  486.01996  16.214021
569.5  510.61048  16.213355
570  415.56552  16.212689
570.5  608.23619  16.212022
571  465.44252  16.211355
571.5  435.01402  16.210688
572  399.00704  16.210021
572.5  390.40958  16.209353
573  359.58567  16.208685
573.5  387.40615  16.208017
574  483.88302  16.207348
574.5  409.29849  16.20668
575  483.34441  16.206011
575.5  452.71241  16.205342
576  361.78825  16.204672
576.5  417.46898  16.204003
577  476.71435  16.203333
577.5  389.62599  16.202663
578  480.63349  16.201993
578.5  499.77594  16.201322
579  396.37178  16.200651
579.5  513.39162  16.19998
580  434.01054  16.199309
580.5  481.21354  16.198638
581  450.46874  16.197966
581.5  529.57092  16.197294
582  482.32885  16.196622
582.5  484.24874  16.19595
583  447.39331  16.195277
583.5  471.74118  16.194605
584  491.50726  16.193932
584.5  478.69835  16.193258
585  427.80606  16.192585
585.5  553.83813  16.191911
586  455.74837  16.191237
586.5  396.86855  16.190563
587  390.63331  16.189889
587.5  387.85421  16.189215
588  471.5658  16.18854
588.5  597.50147  16.187865
589  587.29883  16.18719
589.5  431.34053  16.186514
590  487.60208  16.185839
590.5  499.92693  16.185163
591  476.8366  16.184487
591.5  495.10453  16.183811
592  458.32449  16.183134
592.5  429.44794  16.182458
593  342.55686  16.181781
593.5  538.39375  16.181104
594  500.12484  16.180427
594.5  412.51616  16.179749
595  434.30189  16.179072
595.5  496.32659  16.178394
596  364.85098  16.177716
596.5  348.84454  16.177038
597  477.35371  16.176359
597.5  358.5685  16.175681
598  396.61332  16.175002
598.5  461.11219  16.174323
599  389.8632  16.173644
599.5  369.51808  16.172965
600  352.46893  16.172285
600.5  390.3016  16.171605
601  322.68443  16.170925
601.5  346.05277  16.170245
602  418.88794  16.169565
602.5  443.57249  16.168885
603  414.05229  16.168204
603.5  401.61034  16.167523
604  362.35062  16.166842
604.5  387.41523  16.166161
605  386.57846  16.165479
605.5  313.91986  16.164798
606  359.10565  16.164116
606.5  396.92868  16.163434
607  396.49504  16.162752
607.5  358.38586  16.16207
608  363.86118  16.161387
608.5  334.9682  16.160705
609  266.69583  16.160022
609.5  373.97718  16.159339
610  537.76979  16.158656
610.5  759.17689  16.157972
611  1073.6145  16.157289
611.5  789.60582  16.156605
612  848.55565  16.155921
612.5  1246.0642  16.155237
613  1197.6664  16.154553
613.5  753.40796  16.153869
614  539.50402  16.153184
614.5  405.26464  16.152499
615  336.41805  16.151815
615.5  420.54603  16.15113
616  283.06892  16.150444
616.5  255.38244  16.149759
617  266.35857  16.149074
617.5  383.43109  16.148388
618  357.50667  16.147702
618.5  374.14856  16.147016
619  312.84426  16.14633
619.5  285.0412  16.145644
620  285.15871  16.144957
620.5  381.71847  16.144271
621  341.38168  16.143584
621.5  364.15586  16.142897
622  387.00038  16.14221
622.5  405.01867  16.141523
623  296.55532  16.140835
623.5  304.82635  16.140148
624  331.22573  16.13946
624.5  356.00662  16.138772
625  343.01323  16.138084
625.5  324.85487  16.137396
626  348.12652  16.136708
626.5  318.36403  16.136019
627  358.60406  16.135331
627.5  396.2078  16.134642
628  366.46379  16.133953
628.5  338.13175  16.133264
629  286.75516  16.132575
629.5  297.13744  16.131886
630  199.26709  16.131196
630.5  276.51549  16.130507
631  314.02568  16.129817
631.5  300.81161  16.129127
632  294.69847  16.128437
632.5  357.48888  16.127747
633  426.83035  16.127057
633.5  337.04938  16.126367
634  251.02938  16.125676
634.5  311.72738  16.124985
635  345.76618  16.124295
635.5  296.30258  16.123604
636  374.62168  16.122913
636.5  353.30818  16.122221
637  374.16635  16.12153
637.5  368.26413  16.120839
638  266.24492  16.120147
638.5  311.19762  16.119455
639  360.93428  16.118763
639.5  445.14108  16.118071
640  377.64862  16.117379
640.5  328.60151  16.116687
641  195.17854  16.115995
641.5  282.66525  16.115302
642  358.56383  16.11461
642.5  300.32426  16.113917
643  442.69696  16.113224
643.5  346.18176  16.112531
644  273.64141  16.111838
644.5  295.49309  16.111145
645  238.93337  16.110451
645.5  271.55864  16.109758
646  310.37829  16.109064
646.5  294.09737  16.108371
647  222.9629  16.107677
647.5  328.24909  16.106983
648  334.78064  16.106289
648.5  369.28549  16.105595
649  203.3692  16.1049
649.5  242.4186  16.104206
650  334.86948  16.103512
650.5  261.59427  16.102817
651  282.29284  16.102122
651.5  355.49628  16.101427
652  288.34105  16.100732
652.5  292.23848  16.100037
653  287.8482  16.099342
653.5  316.67241  16.098647
654  344.10615  16.097951
654.5  358.57907  16.097256
655  320.55494  16.09656
655.5  351.31795  16.095865
656  316.71886  16.095169
656.5  272.25596  16.094473
657  333.25364  16.093777
657.5  362.82591  16.093081
658  340.00048  16.092384
658.5  302.41917  16.091688
659  311.46873  16.090991
659.5  276.23039  16.090295
660  250.76166  16.089598
660.5  289.95014  16.088901
661  247.88948  16.088205
661.5  303.69957  16.087508
662  358.45054  16.086811
662.5  326.86904  16.086113
663  269.57701  16.085416
663.5  296.67192  16.084719
664  315.01859  16.084021
664.5  288.99326  16.083324
665  293.91057  16.082626
665.5  212.9219  16.081928
666  236.996  16.081231
666.5  259.02936  16.080533
667  281.36722  16.079835
667.5  262.76566  16.079137
668  325.77513  16.078438
668.5  258.56526  16.07774
669  204.19359  16.077042
669.5  240.45861  16.076343
670  317.74887  16.075645
670.5  318.92919  16.074946
671  384.79805  16.074247
671.5  330.59893  16.073548
672  263.1444  16.072849
672.5  344.65763  16.07215
673  295.02358  16.071451
673.5  264.8318  16.070752
674  340.39106  16.070053
674.5  249.95091  16.069353
675  322.94293  16.068654
675.5  337.11082  16.067954
676  330.6021  16.067255
676.5  293.05306  16.066555
677  376.45869  16.065855
677.5  325.98494  16.065156
678  254.54428  16.064456
678.5  269.95857  16.063756
679  277.69829  16.063055
679.5  256.89251  16.062355
680  230.60516  16.061655
680.5  317.8671  16.060955
681  301.40748  16.060254
681.5  378.6055  16.059554
682  297.90934  16.058853
682.5  238.35838  16.058153
683  306.77311  16.057452
683.5  282.5485  16.056751
684  250.82932  16.05605
684.5  204.62641  16.055349
685  320.19041  16.054648
685.5  309.85939  16.053947
686  249.9132  16.053246
686.5  300.78902  16.052545
687  238.16754  16.051843
687.5  252.89461  16.051142
688  253.75064  16.050441
688.5  284.02474  16.049739
689  290.35098  16.049038
689.5  289.28888  16.048336
690  255.69309  16.047634
690.5  307.3325  16.046932
691  291.09892  16.046231
691.5  301.99235  16.045529
692  253.85988  16.044827
692.5  324.11098  16.044125
693  301.0942  16.043422
693.5  243.3825  16.04272
694  361.46689  16.042018
694.5  252.38008  16.041316
695  230.76587  16.040613
695.5  260.44088  16.039911
696  302.96764  16.039208
696.5  405.39067  16.038506
697  345.57046  16.037803
697.5  327.84044  16.0371
698  224.9321  16.036398
698.5  302.79288  16.035695
699  241.5052  16.034992
699.5  207.87165  16.034289
700  243.937  16.033586
700.5  275.98048  16.032883
701  224.79017  16.03218
701.5  282.22371  16.031477
702  240.99431  16.030773
702.5  287.16473  16.03007
703  227.8629  16.029367
703.5  276.75386  16.028663
704  292.96284  16.02796
704.5  342.48874  16.027256
705  269.95892  16.026553
705.5  277.04195  16.025849
706  280.89755  16.025146
706.5  311.28111  16.024442
707  329.78988  16.023738
707.5  227.82737  16.023034
708  283.87272  16.02233
708.5  287.91288  16.021626
709  292.10617  16.020922
709.5  311.12064  16.020218
710  257.54436  16.019514
710.5  276.96399  16.01881
711  242.62042  16.018106
711.5  287.11965  16.017402
712  335.09443  16.016698
712.5  418.56044  16.015993
713  308.60156  16.015289
713.5  218.77424  16.014584
714  275.21804  16.01388
714.5  282.48847  16.013175
715  253.17737  16.012471
715.5  284.01464  16.011766
716  324.62212  16.011062
716.5  275.21883  16.010357
717  306.30417  16.009652
717.5  250.46887  16.008947
718  277.03225  16.008243
718.5  268.04583  16.007538
719  252.29685  16.006833
719.5  217.78032  16.006128
720  221.87839  16.005423
720.5  202.58824  16.004718
721  272.99912  16.004013
721.5  244.02496  16.003308
722  193.13642  16.002603
722.5  228.9637  16.001897
723  342.82168  16.001192
723.5  337.11018  16.000487
724  309.08865  15.999782
724.5  255.2784  15.999076
725  202.502  15.998371
725.5  231.0629  15.997665
726  231.56708  15.99696
726.5  225.315  15.996254
727  232.20108  15.995549
727.5  252.17869  15.994843
728  256.97836  15.994138
728.5  180.98915  15.993432
729  278.45854  15.992726
729.5  289.49435  15.992021
730  278.95228  15.991315
730.5  196.2857  15.990609
731  218.50396  15.989903
731.5  246.641  15.989198
732  298.57346  15.988492
732.5  235.79359  15.987786
733  212.5704  15.98708
733.5  258.68734  15.986374
734  225.21962  15.985668
734.5  220.19448  15.984962
735  268.02752  15.984256
735.5  264.5564  15.98355
736  253.66076  15.982844
736.5  250.04566  15.982138
737  287.58911  15.981431
737.5  232.64368  15.980725
738  206.84113  15.980019
738.5  282.62506  15.979313
739  240.49285  15.978607
739.5  210.44227  15.9779
740  234.71167  15.977194
740.5  300.25989  15.976488
741  360.83806  15.975781
741.5  316.42371  15.975075
742  175.04539  15.974368
742.5  265.56944  15.973662
743  249.9912  15.972955
743.5  220.4096  15.972249
744  249.07031  15.971542
744.5  320.60606  15.970836
745  298.61372  15.970129
745.5  289.21786  15.969423
746  251.14327  15.968716
746.5  226.39542  15.96801
747  185.05434  15.967303
747.5  259.48866  15.966596
748  284.87765  15.96589
748.5  227.41108  15.965183
749  205.76137  15.964476
749.5  217.8261  15.963769
750  208.89639  15.963063
750.5  236.23505  15.962356
751  251.12607  15.961649
751.5  220.75222  15.960942
752  199.06155  15.960235
752.5  270.44501  15.959528
753  274.22145  15.958822
753.5  188.71563  15.958115
754  156.86834  15.957408
754.5  229.58496  15.956701
755  275.79704  15.955994
755.5  332.0919  15.955287
756  277.70326  15.95458
756.5  306.79596  15.953873
757  233.12273  15.953166
757.5  203.236  15.952459
758  205.15886  15.951752
758.5  254.90937  15.951045
759  250.84224  15.950338
759.5  312.88979  15.949631
760  244.64508  15.948924
760.5  253.76405  15.948217
761  233.41486  15.94751
761.5  187.26092  15.946803
762  211.33087  15.946095
762.5  192.32424  15.945388
763  210.55619  15.944681
763.5  226.97281  15.943974
764  191.93377  15.943267
764.5  164.1021  15.94256
765  198.23556  15.941853
765.5  182.12  15.941145
766  134.79017  15.940438
766.5  244.14696  15.939731
767  231.80543  15.939024
767.5  253.22181  15.938317
768  253.91119  15.937609
768.5  219.42981  15.936902
769  271.8734  15.936195
769.5  207.50744  15.935488
770  276.4392  15.93478
770.5  260.94873  15.934073
771  231.48978  15.933366
771.5  199.77783  15.932659
772  200.13638  15.931951
772.5  232.75664  15.931244
773  328.35868  15.930537
773.5  271.20396  15.92983
774  293.21821  15.929122
774.5  175.94378  15.928415
775  254.06026  15.927708
775.5  222.09279  15.927
776  241.27567  15.926293
776.5  214.49044  15.925586
777  212.78015  15.924879
777.5  242.6146  15.924171
778  283.92128  15.923464
778.5  274.30689  15.922757
779  199.74538  15.922049
779.5  185.43255  15.921342
780  244.7667  15.920635
780.5  373.84625  15.919927
781  260.3852  15.91922
781.5  476.48727  15.918513
782  387.10759  15.917806
782.5  547.39889  15.917098
783  2654.0264  15.916391
783.5  1905.2601  15.915684
784  1690.6149  15.914976
784.5  824.10242  15.914269
785  644.82953  15.913562
785.5  414.03952  15.912855
786  347.75849  15.912147
786.5  330.93399  15.91144
787  324.59101  15.910733
787.5  228.91552  15.910025
788  221.70031  15.909318
788.5  238.62332  15.908611
789  195.19142  15.907904
789.5  238.85119  15.907196
790  193.11797  15.906489
790.5  203.98813  15.905782
791  170.48801  15.905075
791.5  287.70172  15.904367
792  253.07706  15.90366
792.5  195.73887  15.902953
793  169.01582  15.902246
793.5  144.54855  15.901539
794  154.84051  15.900831
794.5  258.79539  15.900124
795  238.34133  15.899417
795.5  295.69244  15.89871
796  232.55816  15.898003
796.5  186.38582  15.897296
797  181.96785  15.896589
797.5  214.16706  15.895881
798  194.6672  15.895174
798.5  163.45032  15.894467
799  189.12894  15.89376
799.5  250.50174  15.893053
800  204.1151  15.892346
800.5  247.11011  15.891639
801  246.99187  15.890932
801.5  220.6301  15.890225
802  177.71624  15.889518
802.5  186.78652  15.888811
803  230.23191  15.888104
803.5  254.74449  15.887397
804  262.80816  15.88669
804.5  283.78166  15.885983
805  307.95461  15.885276
805.5  236.09383  15.884569
806  244.2761  15.883862
806.5  227.04115  15.883155
807  257.19748  15.882448
807.5  181.42247  15.881741
808  230.81421  15.881035
808.5  278.1824  15.880328
809  196.79611  15.879621
809.5  242.33846  15.878914
810  231.24367  15.878207
810.5  194.2939  15.8775
811  183.45503  15.876794
811.5  183.79696  15.876087
812  222.14529  15.87538
812.5  290.79789  15.874673
813  228.80218  15.873967
813.5  182.64346  15.87326
814  216.68618  15.872553
814.5  239.3761  15.871847
815  194.65295  15.87114
815.5  237.05554  15.870433
816  233.98815  15.869727
816.5  262.30619  15.86902
817  268.66043  15.868314
817.5  163.51838  15.867607
818  311.38076  15.866901
818.5  272.55671  15.866194
819  310.15984  15.865488
819.5  214.34383  15.864781
820  275.37354  15.864075
820.5  235.2509  15.863368
821  267.66562  15.862662
821.5  248.39675  15.861956
822  185.01399  15.861249
822.5  203.15351  15.860543
823  210.44692  15.859837
823.5  221.64026  15.85913
824  178.35583  15.858424
824.5  145.31426  15.857718
825  220.69678  15.857012
825.5  211.55421  15.856305
826  236.96343  15.855599
826.5  321.65912  15.854893
827  194.65993  15.854187
827.5  190.2128  15.853481
828  349.97277  15.852775
828.5  260.65168  15.852069
829  307.50274  15.851363
829.5  221.79566  15.850657
830  237.99942  15.849951
830.5  250.24169  15.849245
831  230.52819  15.848539
831.5  264.24408  15.847833
832  174.73158  15.847127
832.5  223.30274  15.846421
833  224.31793  15.845715
833.5  170.41019  15.84501
834  217.71482  15.844304
834.5  288.82943  15.843598
835  258.15305  15.842892
835.5  277.64026  15.842187
836  234.69871  15.841481
836.5  213.51516  15.840775
837  241.00583  15.84007
837.5  235.84429  15.839364
838  203.2536  15.838659
838.5  264.98196  15.837953
839  167.61716  15.837248
839.5  215.27683  15.836542
840  319.69902  15.835837
840.5  251.3685  15.835131
841  261.34304  15.834426
841.5  341.03084  15.83372
842  241.75963  15.833015
842.5  236.61802  15.83231
843  261.21699  15.831605
843.5  313.48571  15.830899
844  276.54616  15.830194
844.5  243.27768  15.829489
845  132.07016  15.828784
845.5  180.88735  15.828079
846  235.40995  15.827374
846.5  247.21923  15.826669
847  282.94999  15.825964
847.5  231.41689  15.825259
848  253.67412  15.824554
848.5  249.0014  15.823849
849  273.10366  15.823144
849.5  208.237  15.822439
850  199.76245  15.821734
850.5  263.74164  15.821029
851  267.28418  15.820325
851.5  217.7435  15.81962
852  292.23386  15.818915
852.5  226.3854  15.818211
853  248.72837  15.817506
853.5  246.36199  15.816801
854  229.54552  15.816097
854.5  125.45564  15.815392
855  217.43363  15.814688
855.5  185.24603  15.813983
856  279.73102  15.813279
856.5  178.22266  15.812575
857  232.44694  15.81187
857.5  237.45759  15.811166
858  147.97216  15.810462
858.5  180.43678  15.809757
859  182.94041  15.809053
859.5  187.16475  15.808349
860  149.57202  15.807645
860.5  156.21664  15.806941
861  181.3303  15.806237
861.5  242.2249  15.805533
862  138.87873  15.804829
862.5  194.28896  15.804125
863  129.62686  15.803421
863.5  132.68854  15.802717
864  167.21918  15.802013
864.5  237.74354  15.801309
865  240.44706  15.800606
865.5  226.33548  15.799902
866  233.64141  15.799198
866.5  207.40705  15.798495
867  163.13557  15.797791
867.5  178.75633  15.797087
868  198.11695  15.796384
868.5  242.60656  15.79568
869  326.9408  15.794977
869.5  323.49186  15.794274
870  431.03255  15.79357
870.5  570.53296  15.792867
871  706.67596  15.792164
871.5  906.66987  15.79146
872  1012.4431  15.790757
872.5  1044.9852  15.790054
873  1098.1297  15.789351
873.5  795.06485  15.788648
874  646.59252  15.787945
874.5  460.8758  15.787242
875  384.51376  15.786539
875.5  232.52612  15.785836
876  166.62281  15.785133
876.5  104.53144  15.78443
877  119.39314  15.783727
877.5  92.981475  15.783025
878  80.437517  15.782322
878.5  70.186272  15.781619
879  75.971676  15.780917
879.5  49.29356  15.780214
880  18.245176  15.779512
880.5  34.238664  15.778809
881  51.1944  15.778107
881.5  41.663408  15.777404
882  18.067688  15.776702
882.5  25.519744  15.776
883  7.183172  15.775297
883.5  18.03084  15.774595
884  49.361788  15.773893
884.5  29.3345  15.773191
885  101.37529  15.772489
885.5  170.67981  15.771787
886  185.00783  15.771085
886.5  156.674  15.770383
887  108.76041  15.769681
887.5  100.57411  15.768979
888  125.0181  15.768277
888.5  268.57603  15.767575
889  283.5466  15.766874
889.5  250.07768  15.766172
890  258.89652  15.76547
890.5  302.38877  15.764769
891  283.71021  15.764067
891.5  218.24138  15.763366
892  234.53887  15.762664
892.5  304.40237  15.761963
893  152.72347  15.761261
893.5  49.8362  15.76056
894  5.16416  15.759859
894.5  11.59516  15.759158
895  15.50132  15.758457
895.5  11.06204  15.757755
896  15.27812  15.757054
896.5  2.85784  15.756353
897  0  15.755652
897.5  0  15.754951
898  19.452596  15.754251
898.5  25.538204  15.75355
899  5.0092  15.752849
899.5  0  15.752148
900  0  15.751448
900.5  8.58236  15.750747
901  1.41764  15.750046
901.5  0  15.749346
902  6.94152  15.748645
902.5  4.767576  15.747945
903  8.290904  15.747244
903.5  0.2232  15.746544
904  9.7768  15.745844
904.5  0  15.745144
905  9.247836  15.744443

