# Created by:        SpecsLab Prodigy, Version 4.84.1-r101483 
#
# XY-Serializer Export Settings:
#   Comment Prefix:           #
#   Output Meta Data:         yes
#   Energy Axis:              Kinetic Energy
#   Count Rate:               Counts per Second
#   Separate Scan Data:       no
#   Separate Channel Data:    no
#   External Channel Data:    yes
#   Transmission Function:    yes
#   Error Bar:                no
#   Operation Results:        yes
#   Time Zone Format:         UTC
#
# Group:                        L-serine pH 7 500 mM
#
# Region:                       N 1s 250
# Spectrum ID:                  665
# Acquisition Date:             03/12/26 10:47:41 UTC
# Analysis Method:              XPS
# Analyzer:                     Phoibos
# Analyzer Lens:                LargeArea:3.5kV
# Analyzer Slit:                5:7x20\B:open
# Scan Mode:                    FixedAnalyzerTransmission
# Curves/Scan:                  1
# Values/Curve:                 301
# Dwell Time:                   0.1
# Excitation Energy:            660
# Kinetic Energy:               240
# Pass Energy:                  10
# Bias Voltage:                 220
# Detector Voltage:             1920
# Eff. Workfunction:            0
# Source:                       Monochromator
# Comment:                      

# Cycle: 0
#
# Number of Scans: 15

# Cycle: 0, Curve: 0
#
# Acquisition Date:             03/12/26 10:47:41 UTC
# ColumnLabels:                 energy counts/s transmission
#
240  5217.2815  8.0797322
240.1  5333.8865  8.0796135
240.2  5275.7483  8.0794948
240.3  5305.5241  8.079376
240.4  5312.0013  8.0792572
240.5  5304.7702  8.0791384
240.6  5289.1329  8.0790195
240.7  5282.3815  8.0789005
240.8  5297.3531  8.0787816
240.9  5441.195  8.0786626
241  5331.1453  8.0785435
241.1  5393.0902  8.0784244
241.2  5540.5999  8.0783053
241.3  5466.6022  8.0781861
241.4  5417.0427  8.0780669
241.5  5356.8768  8.0779476
241.6  5459.3622  8.0778283
241.7  5548.0015  8.077709
241.8  5535.5934  8.0775896
241.9  5498.0323  8.0774702
242  5507.1482  8.0773507
242.1  5581.1076  8.0772312
242.2  5513.9729  8.0771116
242.3  5513.0619  8.0769921
242.4  5544.4377  8.0768724
242.5  5535.951  8.0767528
242.6  5574.0202  8.0766331
242.7  5521.3715  8.0765133
242.8  5544.2185  8.0763935
242.9  5643.3702  8.0762737
243  5564.8141  8.0761538
243.1  5566.0125  8.0760339
243.2  5574.6737  8.075914
243.3  5577.7513  8.075794
243.4  5602.5037  8.075674
243.5  5671.5271  8.0755539
243.6  5635.9498  8.0754338
243.7  5634.1267  8.0753137
243.8  5685.1481  8.0751935
243.9  5700.7352  8.0750733
244  5717.3258  8.074953
244.1  5763.9857  8.0748327
244.2  5795.8415  8.0747124
244.3  5762.9008  8.074592
244.4  5858.5904  8.0744716
244.5  5752.8409  8.0743511
244.6  5804.7767  8.0742306
244.7  5860.6631  8.0741101
244.8  5810.4517  8.0739895
244.9  5854.847  8.0738689
245  5896.5054  8.0737483
245.1  5950.1941  8.0736276
245.2  5925.2107  8.0735069
245.3  5783.8803  8.0733861
245.4  5816.8772  8.0732653
245.5  5928.5247  8.0731445
245.6  5968.9227  8.0730236
245.7  5885.6224  8.0729027
245.8  5866.3868  8.0727817
245.9  5971.2157  8.0726607
246  5864.6793  8.0725397
246.1  5921.5488  8.0724186
246.2  6009.5657  8.0722975
246.3  5924.2082  8.0721764
246.4  6010.3854  8.0720552
246.5  6073.3691  8.071934
246.6  6063.9734  8.0718127
246.7  5966.6911  8.0716914
246.8  5973.1059  8.0715701
246.9  6049.132  8.0714487
247  6167.0156  8.0713273
247.1  6094.9908  8.0712059
247.2  6113.8362  8.0710844
247.3  6235.8579  8.0709629
247.4  6126.9861  8.0708413
247.5  6138.387  8.0707197
247.6  6122.2664  8.0705981
247.7  6169.4983  8.0704764
247.8  6121.1884  8.0703547
247.9  6155.6313  8.070233
248  6221.2859  8.0701112
248.1  6228.0166  8.0699894
248.2  6228.1508  8.0698675
248.3  6210.6755  8.0697457
248.4  6190.0262  8.0696237
248.5  6101.0022  8.0695018
248.6  6276.3469  8.0693798
248.7  6179.431  8.0692577
248.8  6324.3175  8.0691357
248.9  6272.1746  8.0690136
249  6216.3525  8.0688914
249.1  6359.4265  8.0687693
249.2  6344.698  8.068647
249.3  6314.8698  8.0685248
249.4  6342.3063  8.0684025
249.5  6309.1809  8.0682802
249.6  6294.0652  8.0681578
249.7  6355.6558  8.0680354
249.8  6364.5427  8.067913
249.9  6421.6474  8.0677906
250  6369.1013  8.0676681
250.1  6403.4845  8.0675455
250.2  6414.8664  8.067423
250.3  6445.1677  8.0673003
250.4  6409.2041  8.0671777
250.5  6562.2358  8.067055
250.6  6549.4115  8.0669323
250.7  6580.378  8.0668096
250.8  6553.9362  8.0666868
250.9  6438.464  8.066564
251  6460.6154  8.0664411
251.1  6505.3923  8.0663182
251.2  6478.9551  8.0661953
251.3  6549.5163  8.0660724
251.4  6620.3137  8.0659494
251.5  6650.1387  8.0658264
251.6  6571.2143  8.0657033
251.7  6667.4423  8.0655802
251.8  6537.2547  8.0654571
251.9  6572.8605  8.0653339
252  6656.1926  8.0652107
252.1  6744.2464  8.0650875
252.2  6654.6459  8.0649642
252.3  6590.9842  8.0648409
252.4  6600.875  8.0647176
252.5  6727.3653  8.0645942
252.6  6722.3483  8.0644708
252.7  6726.3971  8.0643474
252.8  6651.1391  8.0642239
252.9  6636.4379  8.0641004
253  6719.7182  8.0639769
253.1  6784.0183  8.0638533
253.2  6807.6539  8.0637297
253.3  6776.2105  8.063606
253.4  6682.3425  8.0634824
253.5  6817.4539  8.0633587
253.6  6849.3749  8.0632349
253.7  6776.9965  8.0631112
253.8  6766.8319  8.0629873
253.9  6933.0644  8.0628635
254  6860.1456  8.0627396
254.1  6863.128  8.0626157
254.2  6797.2266  8.0624918
254.3  6909.9984  8.0623678
254.4  6835.4366  8.0622438
254.5  6911.584  8.0621198
254.6  6947.7028  8.0619957
254.7  6921.31  8.0618716
254.8  6940.9667  8.0617474
254.9  6956.1238  8.0616233
255  6874.2323  8.0614991
255.1  7040.2036  8.0613748
255.2  7056.9896  8.0612506
255.3  7080.9361  8.0611263
255.4  7190.2403  8.0610019
255.5  7195.432  8.0608776
255.6  7146.8975  8.0607532
255.7  7143.9612  8.0606287
255.8  7123.6949  8.0605043
255.9  7172.3447  8.0603798
256  7192.7132  8.0602552
256.1  7106.9507  8.0601307
256.2  7202.7869  8.0600061
256.3  7289.0033  8.0598815
256.4  7213.3539  8.0597568
256.5  7143.8742  8.0596321
256.6  7211.2916  8.0595074
256.7  7220.0128  8.0593827
256.8  7271.2117  8.0592579
256.9  7329.3628  8.0591331
257  7290.5602  8.0590082
257.1  7280.0792  8.0588833
257.2  7339.9998  8.0587584
257.3  7316.92  8.0586335
257.4  7340.1873  8.0585085
257.5  7463.9785  8.0583835
257.6  7568.5107  8.0582585
257.7  7678.2202  8.0581334
257.8  7745.0894  8.0580083
257.9  7778.9225  8.0578832
258  7806.2128  8.057758
258.1  8040.6713  8.0576328
258.2  8102.0819  8.0575076
258.3  8208.8482  8.0573823
258.4  8235.0376  8.057257
258.5  8151.8818  8.0571317
258.6  8175.462  8.0570064
258.7  8239.9875  8.056881
258.8  8149.2938  8.0567556
258.9  8085.6221  8.0566301
259  8076.3178  8.0565047
259.1  7938.4271  8.0563792
259.2  7838.9145  8.0562536
259.3  7788.1773  8.0561281
259.4  7804.2734  8.0560025
259.5  7763.8601  8.0558769
259.6  7662.9874  8.0557512
259.7  7596.4218  8.0556255
259.8  7651.1003  8.0554998
259.9  7577.8949  8.0553741
260  7603.9758  8.0552483
260.1  7612.6131  8.0551225
260.2  7598.0455  8.0549966
260.3  7527.7844  8.0548708
260.4  7623.6527  8.0547449
260.5  7530.3471  8.054619
260.6  7452.7939  8.054493
260.7  7589.8343  8.054367
260.8  7676.1346  8.054241
260.9  7727.8098  8.054115
261  7712.443  8.0539889
261.1  7657.9478  8.0538628
261.2  7649.0986  8.0537366
261.3  7546.6308  8.0536105
261.4  7676.1905  8.0534843
261.5  7682.059  8.0533581
261.6  7708.2826  8.0532318
261.7  7832.5875  8.0531055
261.8  7770.6208  8.0529792
261.9  7666.5354  8.0528529
262  7666.4453  8.0527265
262.1  7662.5488  8.0526001
262.2  7694.7897  8.0524737
262.3  7628.1009  8.0523472
262.4  7741.1029  8.0522208
262.5  7717.7077  8.0520942
262.6  7765.8473  8.0519677
262.7  7737.3288  8.0518411
262.8  7740.9531  8.0517145
262.9  7820.6573  8.0515879
263  7826.241  8.0514612
263.1  7845.0501  8.0513346
263.2  7812.4078  8.0512078
263.3  7767.5332  8.0510811
263.4  7887.76  8.0509543
263.5  8027.6238  8.0508275
263.6  7947.9612  8.0507007
263.7  8000.1471  8.0505738
263.8  8008.0476  8.050447
263.9  7849.939  8.05032
264  7873.7467  8.0501931
264.1  7922.4512  8.0500661
264.2  7912.9017  8.0499391
264.3  8003.1172  8.0498121
264.4  7906.7239  8.0496851
264.5  7975.6959  8.049558
264.6  7972.4899  8.0494309
264.7  7988.8233  8.0493037
264.8  8000.1513  8.0491766
264.9  7980.6269  8.0490494
265  7950.7557  8.0489221
265.1  8037.253  8.0487949
265.2  7976.5212  8.0486676
265.3  8054.4204  8.0485403
265.4  8039.5897  8.048413
265.5  8092.6808  8.0482856
265.6  8055.3193  8.0481582
265.7  8088.4559  8.0480308
265.8  8035.0653  8.0479034
265.9  8121.0352  8.0477759
266  8134.6672  8.0476484
266.1  8251.0123  8.0475209
266.2  8162.6394  8.0473933
266.3  8230.9534  8.0472658
266.4  8126.8534  8.0471381
266.5  8083.2977  8.0470105
266.6  8167.4033  8.0468829
266.7  8144.5247  8.0467552
266.8  8049.1907  8.0466275
266.9  8148.9461  8.0464997
267  8213.1005  8.0463719
267.1  8289.1124  8.0462441
267.2  8290.689  8.0461163
267.3  8216.6239  8.0459885
267.4  8336.0761  8.0458606
267.5  8374.5468  8.0457327
267.6  8273.4503  8.0456048
267.7  8228.4178  8.0454768
267.8  8286.47  8.0453488
267.9  8301.8223  8.0452208
268  8313.4466  8.0450928
268.1  8392.3573  8.0449647
268.2  8353.184  8.0448367
268.3  8309.389  8.0447085
268.4  8461.6763  8.0445804
268.5  8408.1192  8.0444522
268.6  8297.3864  8.044324
268.7  8261.4131  8.0441958
268.8  8298.4981  8.0440676
268.9  8290.0489  8.0439393
269  8278.8312  8.043811
269.1  8341.1564  8.0436827
269.2  8382.7809  8.0435543
269.3  8373.4289  8.043426
269.4  8464.7281  8.0432976
269.5  8422.4412  8.0431692
269.6  8400.8244  8.0430407
269.7  8441.8623  8.0429122
269.8  8445.015  8.0427837
269.9  8546.2837  8.0426552
270  8561.8904  8.0425266

