# Created by:        SpecsLab Prodigy, Version 4.84.1-r101483 
#
# XY-Serializer Export Settings:
#   Comment Prefix:           #
#   Output Meta Data:         yes
#   Energy Axis:              Kinetic Energy
#   Count Rate:               Counts per Second
#   Separate Scan Data:       no
#   Separate Channel Data:    no
#   External Channel Data:    yes
#   Transmission Function:    yes
#   Error Bar:                no
#   Operation Results:        yes
#   Time Zone Format:         UTC
#
# Group:                        L-serine pH 7 500 mM
#
# Region:                       VBM
# Spectrum ID:                  659
# Acquisition Date:             03/12/26 10:16:19 UTC
# Analysis Method:              XPS
# Analyzer:                     Phoibos
# Analyzer Lens:                LargeArea:3.5kV
# Analyzer Slit:                5:7x20\B:open
# Scan Mode:                    FixedAnalyzerTransmission
# Curves/Scan:                  1
# Values/Curve:                 251
# Dwell Time:                   0.1
# Excitation Energy:            560
# Kinetic Energy:               540
# Pass Energy:                  10
# Bias Voltage:                 220
# Detector Voltage:             1920
# Eff. Workfunction:            0
# Source:                       Monochromator
# Comment:                      

# Cycle: 0
#
# Number of Scans: 2

# Cycle: 0, Curve: 0
#
# Acquisition Date:             03/12/26 10:16:19 UTC
# ColumnLabels:                 energy counts/s transmission
#
540  1922.9689  7.6719001
540.1  1827.498  7.6717662
540.2  1854.0676  7.6716323
540.3  1827.3082  7.6714984
540.4  1783.3519  7.6713645
540.5  1723.8142  7.6712306
540.6  1762.483  7.6710967
540.7  1719.0009  7.6709629
540.8  1586.3952  7.670829
540.9  1576.6951  7.6706951
541  1574.7566  7.6705613
541.1  1464.5869  7.6704274
541.2  1494.5547  7.6702936
541.3  1516.6316  7.6701598
541.4  1429.3461  7.6700259
541.5  1424.2934  7.6698921
541.6  1415.8294  7.6697583
541.7  1360.6299  7.6696245
541.8  1309.1937  7.6694907
541.9  1243.5299  7.6693569
542  1225.9471  7.6692231
542.1  1157.5888  7.6690893
542.2  1141.2582  7.6689555
542.3  1079.1686  7.6688218
542.4  977.10854  7.668688
542.5  1166.9485  7.6685542
542.6  1198.4243  7.6684205
542.7  1094.5201  7.6682867
542.8  1128.703  7.668153
542.9  1113.6048  7.6680193
543  1068.5661  7.6678855
543.1  1167.1799  7.6677518
543.2  1081.7662  7.6676181
543.3  1092.7842  7.6674844
543.4  1269.2675  7.6673507
543.5  1208.0202  7.667217
543.6  1286.3731  7.6670833
543.7  1287.7169  7.6669496
543.8  1468.1494  7.666816
543.9  1583.3473  7.6666823
544  1674.4538  7.6665486
544.1  1596.4079  7.666415
544.2  1738.8935  7.6662813
544.3  1986.0552  7.6661477
544.4  2225.705  7.666014
544.5  2326.6768  7.6658804
544.6  2638.1264  7.6657468
544.7  2724.8939  7.6656132
544.8  2902.5166  7.6654795
544.9  3221.1922  7.6653459
545  3501.7445  7.6652123
545.1  3789.8207  7.6650787
545.2  3867.759  7.6649452
545.3  4242.6433  7.6648116
545.4  4413.9699  7.664678
545.5  4871.2866  7.6645444
545.6  5209.4491  7.6644109
545.7  5335.7298  7.6642773
545.8  5530.3437  7.6641438
545.9  5866.5958  7.6640102
546  6025.3942  7.6638767
546.1  6032.2094  7.6637432
546.2  6500.7166  7.6636096
546.3  6475.7524  7.6634761
546.4  6544.7567  7.6633426
546.5  6820.557  7.6632091
546.6  6848.2674  7.6630756
546.7  7087.4431  7.6629421
546.8  6965.8369  7.6628086
546.9  6996.4323  7.6626751
547  7051.6124  7.6625417
547.1  6770.5297  7.6624082
547.2  6406.8553  7.6622747
547.3  6389.1144  7.6621413
547.4  6267.7619  7.6620078
547.5  5937.017  7.6618744
547.6  6010.5411  7.661741
547.7  6048.4117  7.6616075
547.8  5693.1707  7.6614741
547.9  5360.1923  7.6613407
548  5136.0514  7.6612073
548.1  5178.2676  7.6610739
548.2  5237.1233  7.6609405
548.3  5427.0651  7.6608071
548.4  5826.3947  7.6606737
548.5  6170.9465  7.6605403
548.6  6713.0376  7.660407
548.7  7612.4903  7.6602736
548.8  8528.9551  7.6601402
548.9  9200.3983  7.6600069
549  10148.643  7.6598735
549.1  10876.431  7.6597402
549.2  11783.608  7.6596069
549.3  12617.414  7.6594735
549.4  12719.514  7.6593402
549.5  13037.042  7.6592069
549.6  13283.191  7.6590736
549.7  13023.878  7.6589403
549.8  13099.066  7.658807
549.9  12846.285  7.6586737
550  12771.872  7.6585404
550.1  12379.645  7.6584072
550.2  12359.286  7.6582739
550.3  12324.682  7.6581406
550.4  11951.987  7.6580074
550.5  12123.732  7.6578741
550.6  12137.05  7.6577409
550.7  12678.036  7.6576076
550.8  12861.795  7.6574744
550.9  13245.163  7.6573412
551  13816.89  7.657208
551.1  14217.806  7.6570748
551.2  14784.018  7.6569415
551.3  15305.826  7.6568084
551.4  14762.491  7.6566752
551.5  14436.915  7.656542
551.6  14112.375  7.6564088
551.7  13275.88  7.6562756
551.8  12520.293  7.6561425
551.9  11582.217  7.6560093
552  11197.144  7.6558761
552.1  11297.168  7.655743
552.2  11475.299  7.6556099
552.3  11909.4  7.6554767
552.4  12290.232  7.6553436
552.5  12944.888  7.6552105
552.6  13763.292  7.6550774
552.7  14026.483  7.6549442
552.8  14510.201  7.6548111
552.9  14588.455  7.654678
553  14421.861  7.654545
553.1  13647.559  7.6544119
553.2  13404.049  7.6542788
553.3  12672.185  7.6541457
553.4  11453.71  7.6540127
553.5  10695.06  7.6538796
553.6  9420.1639  7.6537466
553.7  8137.4141  7.6536135
553.8  7082.6492  7.6534805
553.9  5568.0377  7.6533474
554  4722.9669  7.6532144
554.1  3802.6848  7.6530814
554.2  3070.9741  7.6529484
554.3  2369.7019  7.6528154
554.4  1914.5524  7.6526824
554.5  1479.0276  7.6525494
554.6  1269.2871  7.6524164
554.7  1041.489  7.6522834
554.8  911.91825  7.6521505
554.9  696.22869  7.6520175
555  496.17335  7.6518845
555.1  479.05858  7.6517516
555.2  448.02364  7.6516186
555.3  405.01979  7.6514857
555.4  322.39228  7.6513528
555.5  231.38932  7.6512198
555.6  199.49398  7.6510869
555.7  158.67923  7.650954
555.8  133.28816  7.6508211
555.9  128.01427  7.6506882
556  142.37381  7.6505553
556.1  89.423036  7.6504224
556.2  84.605773  7.6502895
556.3  110.66362  7.6501566
556.4  64.527994  7.6500238
556.5  72.466656  7.6498909
556.6  50.139605  7.649758
556.7  47.222375  7.6496252
556.8  61.493804  7.6494924
556.9  65.901621  7.6493595
557  33.118149  7.6492267
557.1  30.217456  7.6490939
557.2  54.51974  7.648961
557.3  44.705479  7.6488282
557.4  53.894981  7.6486954
557.5  35.0833  7.6485626
557.6  24.949469  7.6484298
557.7  41.974621  7.648297
557.8  33.08111  7.6481643
557.9  47.132584  7.6480315
558  53.667181  7.6478987
558.1  32.225535  7.647766
558.2  55.4682  7.6476332
558.3  20.38219  7.6475005
558.4  32.659625  7.6473677
558.5  18.038035  7.647235
558.6  11.8254  7.6471023
558.7  24.6216  7.6469696
558.8  11.24735  7.6468368
558.9  23.63325  7.6467041
559  7.2128  7.6465714
559.1  21.975289  7.6464387
559.2  25.926861  7.646306
559.3  18.20865  7.6461734
559.4  23.9366  7.6460407
559.5  27.353835  7.645908
559.6  18.368965  7.6457754
559.7  30.85555  7.6456427
559.8  11.229619  7.6455101
559.9  25.557306  7.6453774
560  17.400565  7.6452448
560.1  24.74846  7.6451121
560.2  13.89431  7.6449795
560.3  14.30994  7.6448469
560.4  8.11885  7.6447143
560.5  6.87665  7.6445817
560.6  28.031269  7.6444491
560.7  27.611331  7.6443165
560.8  8.340795  7.6441839
560.9  17.472495  7.6440513
561  17.47181  7.6439188
561.1  13.63835  7.6437862
561.2  7.60835  7.6436537
561.3  5.34505  7.6435211
561.4  9.7403  7.6433886
561.5  13.20865  7.643256
561.6  9.442669  7.6431235
561.7  25.166206  7.642991
561.8  12.701925  7.6428584
561.9  11.02105  7.6427259
562  13.2895  7.6425934
562.1  5.13145  7.6424609
562.2  7.0473  7.6423284
562.3  17.948915  7.6421959
562.4  9.148885  7.6420635
562.5  6.06785  7.641931
562.6  6.75345  7.6417985
562.7  17.1275  7.6416661
562.8  14.53175  7.6415336
562.9  14.490169  7.6414012
563  12.224781  7.6412687
563.1  12.73217  7.6411363
563.2  20.93638  7.6410039
563.3  13.25485  7.6408714
563.4  7.476945  7.640739
563.5  10.259055  7.6406066
563.6  4.9577  7.6404742
563.7  6.961965  7.6403418
563.8  12.26776  7.6402094
563.9  5.757575  7.6400771
564  22.3961  7.6399447
564.1  22.4422  7.6398123
564.2  5.2167  7.63968
564.3  7.6046  7.6395476
564.4  4.56585  7.6394153
564.5  12.82955  7.6392829
564.6  0  7.6391506
564.7  0  7.6390182
564.8  7.85985  7.6388859
564.9  5.97875  7.6387536
565  17.69815  7.6386213

