# Created by:        SpecsLab Prodigy, Version 4.84.1-r101483 
#
# XY-Serializer Export Settings:
#   Comment Prefix:           #
#   Output Meta Data:         yes
#   Energy Axis:              Kinetic Energy
#   Count Rate:               Counts per Second
#   Separate Scan Data:       no
#   Separate Channel Data:    no
#   External Channel Data:    yes
#   Transmission Function:    yes
#   Error Bar:                no
#   Operation Results:        yes
#   Time Zone Format:         UTC
#
# Group:                        L-serine pH 7 500 mM
#
# Region:                       VBM
# Spectrum ID:                  646
# Acquisition Date:             03/12/26 08:25:53 UTC
# Analysis Method:              XPS
# Analyzer:                     Phoibos
# Analyzer Lens:                LargeArea:3.5kV
# Analyzer Slit:                5:7x20\B:open
# Scan Mode:                    FixedAnalyzerTransmission
# Curves/Scan:                  1
# Values/Curve:                 251
# Dwell Time:                   0.1
# Excitation Energy:            590
# Kinetic Energy:               570
# Pass Energy:                  10
# Bias Voltage:                 220
# Detector Voltage:             1920
# Eff. Workfunction:            0
# Source:                       Monochromator
# Comment:                      jet crashed

# Cycle: 0
#
# Number of Scans: 2

# Cycle: 0, Curve: 0
#
# Acquisition Date:             03/12/26 08:25:53 UTC
# ColumnLabels:                 energy counts/s transmission
#
570  438.09775  7.6320142
570.1  478.09681  7.6318823
570.2  519.84739  7.6317503
570.3  413.63861  7.6316183
570.4  412.2671  7.6314864
570.5  373.85264  7.6313544
570.6  382.13805  7.6312225
570.7  315.73538  7.6310906
570.8  338.84294  7.6309586
570.9  343.47666  7.6308267
571  429.91304  7.6306948
571.1  366.34119  7.6305629
571.2  304.29417  7.630431
571.3  412.0294  7.6302991
571.4  383.09031  7.6301672
571.5  317.51837  7.6300353
571.6  362.86247  7.6299035
571.7  323.98715  7.6297716
571.8  371.60931  7.6296397
571.9  326.05685  7.6295079
572  296.79734  7.629376
572.1  311.06756  7.6292442
572.2  313.42926  7.6291123
572.3  221.44368  7.6289805
572.4  262.85149  7.6288487
572.5  264.8699  7.6287169
572.6  257.07512  7.6285851
572.7  249.17755  7.6284533
572.8  219.12675  7.6283215
572.9  324.38299  7.6281897
573  286.09863  7.6280579
573.1  232.88441  7.6279261
573.2  263.9425  7.6277944
573.3  291.06979  7.6276626
573.4  269.71471  7.6275308
573.5  251.0882  7.6273991
573.6  291.49397  7.6272674
573.7  281.7684  7.6271356
573.8  244.56604  7.6270039
573.9  278.7678  7.6268722
574  335.9526  7.6267405
574.1  315.02043  7.6266087
574.2  298.10654  7.626477
574.3  353.29784  7.6263454
574.4  383.65422  7.6262137
574.5  471.20498  7.626082
574.6  526.70635  7.6259503
574.7  515.25535  7.6258186
574.8  608.79116  7.625687
574.9  657.31228  7.6255553
575  635.00046  7.6254237
575.1  690.83571  7.625292
575.2  785.14706  7.6251604
575.3  705.57363  7.6250288
575.4  791.39201  7.6248971
575.5  989.34326  7.6247655
575.6  1028.9611  7.6246339
575.7  1173.9778  7.6245023
575.8  1185.7766  7.6243707
575.9  1324.3991  7.6242391
576  1364.3  7.6241076
576.1  1501.7993  7.623976
576.2  1433.361  7.6238444
576.3  1438.2813  7.6237128
576.4  1524.6014  7.6235813
576.5  1504.2395  7.6234497
576.6  1608.7504  7.6233182
576.7  1699.6016  7.6231867
576.8  1637.615  7.6230551
576.9  1614.5378  7.6229236
577  1513.5884  7.6227921
577.1  1690.7613  7.6226606
577.2  1601.0613  7.6225291
577.3  1510.868  7.6223976
577.4  1560.9997  7.6222661
577.5  1409.8378  7.6221346
577.6  1522.2384  7.6220031
577.7  1555.9764  7.6218717
577.8  1470.5992  7.6217402
577.9  1373.9727  7.6216088
578  1192.5855  7.6214773
578.1  1247.1101  7.6213459
578.2  1166.9119  7.6212144
578.3  1146.7081  7.621083
578.4  1113.9263  7.6209516
578.5  1132.748  7.6208202
578.6  1340.1367  7.6206888
578.7  1455.0398  7.6205574
578.8  1562.8473  7.620426
578.9  1782.0979  7.6202946
579  2034.7973  7.6201632
579.1  2208.5014  7.6200318
579.2  2486.0895  7.6199004
579.3  2870.585  7.6197691
579.4  2934.9571  7.6196377
579.5  3012.244  7.6195064
579.6  3317.8995  7.619375
579.7  3302.4444  7.6192437
579.8  3253.8914  7.6191124
579.9  3023.6059  7.618981
580  2898.6478  7.6188497
580.1  2817.7054  7.6187184
580.2  2935.7629  7.6185871
580.3  2908.6485  7.6184558
580.4  2717.8374  7.6183245
580.5  2806.0641  7.6181933
580.6  2957.127  7.618062
580.7  2921.0946  7.6179307
580.8  2878.0232  7.6177994
580.9  2816.0257  7.6176682
581  2857.5662  7.6175369
581.1  3090.6098  7.6174057
581.2  3252.0656  7.6172745
581.3  3414.9639  7.6171432
581.4  3650.8365  7.617012
581.5  3850.8888  7.6168808
581.6  3748.4025  7.6167496
581.7  3482.3753  7.6166184
581.8  2972.8895  7.6164872
581.9  2467.6158  7.616356
582  2331.7639  7.6162248
582.1  2245.5245  7.6160937
582.2  2483.3019  7.6159625
582.3  2391.561  7.6158313
582.4  2442.3928  7.6157002
582.5  2657.5714  7.615569
582.6  2907.6039  7.6154379
582.7  3282.6266  7.6153067
582.8  3156.2339  7.6151756
582.9  3299.977  7.6150445
583  3323.9609  7.6149134
583.1  3528.1118  7.6147823
583.2  3331.2659  7.6146512
583.3  3224.1688  7.6145201
583.4  2969.4658  7.614389
583.5  2862.193  7.6142579
583.6  2626.5593  7.6141268
583.7  2299.0416  7.6139958
583.8  1999.2058  7.6138647
583.9  1632.9773  7.6137337
584  1353.3818  7.6136026
584.1  1135.5077  7.6134716
584.2  797.05038  7.6133405
584.3  645.09871  7.6132095
584.4  437.64003  7.6130785
584.5  377.85905  7.6129475
584.6  321.17559  7.6128165
584.7  225.56129  7.6126855
584.8  188.06784  7.6125545
584.9  199.77376  7.6124235
585  148.7513  7.6122925
585.1  113.61275  7.6121615
585.2  118.6722  7.6120306
585.3  91.39961  7.6118996
585.4  96.476714  7.6117686
585.5  69.743376  7.6116377
585.6  59.264479  7.6115068
585.7  67.543946  7.6113758
585.8  26.747625  7.6112449
585.9  14.9147  7.611114
586  25.885915  7.6109831
586.1  39.74987  7.6108522
586.2  45.858615  7.6107213
586.3  38.937384  7.6105904
586.4  38.504861  7.6104595
586.5  11.026225  7.6103286
586.6  28.718525  7.6101977
586.7  22.349324  7.6100669
586.8  17.688481  7.609936
586.9  12.74115  7.6098052
587  16.744535  7.6096743
587.1  21.331365  7.6095435
587.2  17.47695  7.6094126
587.3  18.45125  7.6092818
587.4  30.00445  7.609151
587.5  14.83315  7.6090202
587.6  14.83077  7.6088894
587.7  21.49748  7.6087586
587.8  13.66799  7.6086278
587.9  24.09761  7.608497
588  18.421615  7.6083662
588.1  24.48955  7.6082354
588.2  20.212235  7.6081047
588.3  18.340765  7.6079739
588.4  18.714735  7.6078432
588.5  9.698  7.6077124
588.6  22.6936  7.6075817
588.7  10.77405  7.607451
588.8  13.50695  7.6073202
588.9  7.863619  7.6071895
589  32.252041  7.6070588
589.1  26.84119  7.6069281
589.2  14.277195  7.6067974
589.3  10.986969  7.6066667
589.4  22.047336  7.606536
589.5  18.331745  7.6064054
589.6  24.744105  7.6062747
589.7  5.1744  7.606144
589.8  22.005015  7.6060134
589.9  20.552735  7.6058827
590  23.25175  7.6057521
590.1  26.233275  7.6056214
590.2  19.319565  7.6054908
590.3  12.87186  7.6053602
590.4  13.06385  7.6052296
590.5  16.7105  7.605099
590.6  12.78725  7.6049683
590.7  6.70225  7.6048378
590.8  28.5069  7.6047072
590.9  14.914715  7.6045766
591  15.689404  7.604446
591.1  12.859146  7.6043154
591.2  9.659435  7.6041849
591.3  12.2172  7.6040543
591.4  26.243545  7.6039238
591.5  22.471205  7.6037932
591.6  13.217645  7.6036627
591.7  24.982705  7.6035322
591.8  18.17845  7.6034016
591.9  16.0217  7.6032711
592  16.588035  7.6031406
592.1  23.837215  7.6030101
592.2  18.20424  7.6028796
592.3  14.66386  7.6027491
592.4  14.61335  7.6026186
592.5  21.408395  7.6024882
592.6  27.476305  7.6023577
592.7  18.11885  7.6022272
592.8  5.1359  7.6020968
592.9  1.75345  7.6019663
593  16.83503  7.6018359
593.1  20.93952  7.6017055
593.2  12.18314  7.601575
593.3  6.57841  7.6014446
593.4  7.51925  7.6013142
593.5  6.84255  7.6011838
593.6  13.238265  7.6010534
593.7  5.046835  7.600923
593.8  14.22974  7.6007926
593.9  15.553479  7.6006622
594  18.246581  7.6005319
594.1  15.2642  7.6004015
594.2  13.97895  7.6002711
594.3  17.591195  7.6001408
594.4  14.199405  7.6000104
594.5  4.528  7.5998801
594.6  10.64265  7.5997498
594.7  15.9364  7.5996194
594.8  8.89295  7.5994891
594.9  11.783819  7.5993588
595  30.566181  7.5992285

