# Created by:        SpecsLab Prodigy, Version 4.84.1-r101483 
#
# XY-Serializer Export Settings:
#   Comment Prefix:           #
#   Output Meta Data:         yes
#   Energy Axis:              Kinetic Energy
#   Count Rate:               Counts per Second
#   Separate Scan Data:       no
#   Separate Channel Data:    no
#   External Channel Data:    yes
#   Transmission Function:    yes
#   Error Bar:                no
#   Operation Results:        yes
#   Time Zone Format:         UTC
#
# Group:                        L-serine pH 7 500 mM
#
# Region:                       O 1s ref
# Spectrum ID:                  684
# Acquisition Date:             03/12/26 14:54:47 UTC
# Analysis Method:              XPS
# Analyzer:                     Phoibos
# Analyzer Lens:                LargeArea:3.5kV
# Analyzer Slit:                5:7x20\B:open
# Scan Mode:                    FixedAnalyzerTransmission
# Curves/Scan:                  1
# Values/Curve:                 151
# Dwell Time:                   0.1
# Excitation Energy:            900
# Kinetic Energy:               360
# Pass Energy:                  20
# Bias Voltage:                 220
# Detector Voltage:             1920
# Eff. Workfunction:            0
# Source:                       Monochromator
# Comment:                      

# Cycle: 0
#
# Number of Scans: 1

# Cycle: 0, Curve: 0
#
# Acquisition Date:             03/12/26 14:54:47 UTC
# ColumnLabels:                 energy counts/s transmission
#
360  7312.2165  16.44968
360.1  6307.3407  16.449603
360.2  6537.5446  16.449526
360.3  6166.4298  16.449449
360.4  6555.0193  16.449371
360.5  6350.5059  16.449294
360.6  5853.2323  16.449217
360.7  5903.881  16.449139
360.8  5932.4596  16.449062
360.9  6159.6943  16.448985
361  6043.0974  16.448907
361.1  6050.6164  16.448829
361.2  5800.8163  16.448752
361.3  5779.1844  16.448674
361.4  5819.5241  16.448596
361.5  5887.1283  16.448518
361.6  5791.2826  16.44844
361.7  5760.9477  16.448363
361.8  5647.5103  16.448285
361.9  5643.0067  16.448206
362  5616.7103  16.448128
362.1  5902.667  16.44805
362.2  5687.5942  16.447972
362.3  5651.3647  16.447894
362.4  5432.7138  16.447815
362.5  6065.121  16.447737
362.6  5911.17  16.447658
362.7  5644.3807  16.44758
362.8  6057.0078  16.447501
362.9  6086.001  16.447423
363  6086.8983  16.447344
363.1  6048.2542  16.447265
363.2  6322.2745  16.447187
363.3  6585.531  16.447108
363.4  6610.9627  16.447029
363.5  6145.9854  16.44695
363.6  6156.6155  16.446871
363.7  6587.2182  16.446792
363.8  7006.8008  16.446713
363.9  7529.367  16.446634
364  7406.3727  16.446554
364.1  7521.7229  16.446475
364.2  7733.1236  16.446396
364.3  8423.478  16.446316
364.4  8763.1892  16.446237
364.5  9179.3941  16.446158
364.6  10033.365  16.446078
364.7  11627.159  16.445998
364.8  14205.919  16.445919
364.9  18178.292  16.445839
365  23654.034  16.445759
365.1  31055.806  16.445679
365.2  39790.277  16.4456
365.3  48397.849  16.44552
365.4  54567.975  16.44544
365.5  55326.511  16.44536
365.6  53128.744  16.44528
365.7  47727.44  16.445199
365.8  42704.206  16.445119
365.9  39082.9  16.445039
366  38018.733  16.444959
366.1  40044.696  16.444878
366.2  44180.794  16.444798
366.3  50884.707  16.444718
366.4  59155.857  16.444637
366.5  65902.739  16.444556
366.6  74661.525  16.444476
366.7  82532.764  16.444395
366.8  91827.634  16.444314
366.9  97842.33  16.444234
367  103180.41  16.444153
367.1  107769.48  16.444072
367.2  109504.16  16.443991
367.3  110938.04  16.44391
367.4  108644.86  16.443829
367.5  103178.92  16.443748
367.6  96433.331  16.443667
367.7  86643.201  16.443586
367.8  79036.33  16.443504
367.9  69820.768  16.443423
368  60466.474  16.443342
368.1  52845.875  16.44326
368.2  44634.263  16.443179
368.3  36443.609  16.443097
368.4  30426.908  16.443016
368.5  25279.641  16.442934
368.6  21555.314  16.442852
368.7  18097.475  16.442771
368.8  16028.315  16.442689
368.9  14407.177  16.442607
369  12871.729  16.442525
369.1  11951.687  16.442443
369.2  10506.241  16.442361
369.3  9416.6266  16.442279
369.4  9333.5963  16.442197
369.5  8635.6032  16.442115
369.6  7925.1159  16.442033
369.7  7513.3598  16.44195
369.8  7539.4415  16.441868
369.9  7376.321  16.441786
370  7419.4712  16.441703
370.1  7145.6102  16.441621
370.2  6641.9192  16.441538
370.3  6686.6299  16.441456
370.4  6647.8603  16.441373
370.5  6393.4569  16.441291
370.6  6826.7759  16.441208
370.7  6420.545  16.441125
370.8  6480.5805  16.441042
370.9  6398.1724  16.440959
371  6003.4524  16.440876
371.1  6082.0833  16.440793
371.2  5816.808  16.44071
371.3  5744.6481  16.440627
371.4  5887.1675  16.440544
371.5  6153.3312  16.440461
371.6  5915.9215  16.440378
371.7  5734.8642  16.440295
371.8  5735.4073  16.440211
371.9  5935.2866  16.440128
372  5834.2163  16.440044
372.1  5837.5116  16.439961
372.2  5727.651  16.439877
372.3  5676.486  16.439794
372.4  6229.2289  16.43971
372.5  6062.2046  16.439626
372.6  5750.5665  16.439543
372.7  5890.808  16.439459
372.8  5504.1489  16.439375
372.9  5608.9285  16.439291
373  5778.7031  16.439207
373.1  6138.4875  16.439123
373.2  5773.2337  16.439039
373.3  5623.2112  16.438955
373.4  5293.0338  16.438871
373.5  5725.7444  16.438787
373.6  5598.3828  16.438703
373.7  5430.825  16.438618
373.8  5555.2355  16.438534
373.9  5705.1969  16.438449
374  5821.9244  16.438365
374.1  5671.5238  16.438281
374.2  5902.6664  16.438196
374.3  5853.9802  16.438111
374.4  5729.0846  16.438027
374.5  6028.7486  16.437942
374.6  5801.5475  16.437857
374.7  5374.9005  16.437772
374.8  5396.7721  16.437688
374.9  5533.3851  16.437603
375  6026.7731  16.437518

