# Created by:        SpecsLab Prodigy, Version 4.84.1-r101483 
#
# XY-Serializer Export Settings:
#   Comment Prefix:           #
#   Output Meta Data:         yes
#   Energy Axis:              Kinetic Energy
#   Count Rate:               Counts per Second
#   Separate Scan Data:       no
#   Separate Channel Data:    no
#   External Channel Data:    yes
#   Transmission Function:    yes
#   Error Bar:                no
#   Operation Results:        yes
#   Time Zone Format:         UTC
#
# Group:                        L-serine pH 7 500 mM
#
# Region:                       O 1s ref
# Spectrum ID:                  628
# Acquisition Date:             03/12/26 06:37:32 UTC
# Analysis Method:              XPS
# Analyzer:                     Phoibos
# Analyzer Lens:                LargeArea:3.5kV
# Analyzer Slit:                5:7x20\B:open
# Scan Mode:                    FixedAnalyzerTransmission
# Curves/Scan:                  1
# Values/Curve:                 151
# Dwell Time:                   0.1
# Excitation Energy:            900
# Kinetic Energy:               360
# Pass Energy:                  20
# Bias Voltage:                 220
# Detector Voltage:             1920
# Eff. Workfunction:            0
# Source:                       Monochromator
# Comment:                      

# Cycle: 0
#
# Number of Scans: 1

# Cycle: 0, Curve: 0
#
# Acquisition Date:             03/12/26 06:37:32 UTC
# ColumnLabels:                 energy counts/s transmission
#
360  10897.948  16.44968
360.1  10762.722  16.449603
360.2  10391.277  16.449526
360.3  10077.145  16.449449
360.4  10357.547  16.449371
360.5  9780.6235  16.449294
360.6  9907.1225  16.449217
360.7  9889.3987  16.449139
360.8  9161.8079  16.449062
360.9  9553.056  16.448985
361  9145.8371  16.448907
361.1  9202.7403  16.448829
361.2  9539.9238  16.448752
361.3  9386.9046  16.448674
361.4  8907.7122  16.448596
361.5  9156.4239  16.448518
361.6  9700.2982  16.44844
361.7  9318.1592  16.448363
361.8  8874.6239  16.448285
361.9  9030.8383  16.448206
362  9093.0511  16.448128
362.1  9033.0096  16.44805
362.2  9714.2079  16.447972
362.3  9399.9782  16.447894
362.4  9258.2701  16.447815
362.5  9134.0642  16.447737
362.6  9557.9951  16.447658
362.7  9431.2101  16.44758
362.8  9393.6794  16.447501
362.9  9676.7262  16.447423
363  9655.0315  16.447344
363.1  9802.4668  16.447265
363.2  9957.6408  16.447187
363.3  10151.681  16.447108
363.4  10049.168  16.447029
363.5  10265.442  16.44695
363.6  10871.129  16.446871
363.7  10463.339  16.446792
363.8  10620.875  16.446713
363.9  11415.855  16.446634
364  12096.61  16.446554
364.1  13002.501  16.446475
364.2  13050.633  16.446396
364.3  14095.768  16.446316
364.4  15658.73  16.446237
364.5  18189.556  16.446158
364.6  22173.062  16.446078
364.7  27070.802  16.445998
364.8  34510.253  16.445919
364.9  45084.163  16.445839
365  56240.735  16.445759
365.1  69502.193  16.445679
365.2  79597.745  16.4456
365.3  85661.644  16.44552
365.4  86438.176  16.44544
365.5  81782.571  16.44536
365.6  73826.155  16.44528
365.7  64857.928  16.445199
365.8  57250.992  16.445119
365.9  53717.343  16.445039
366  55556.621  16.444959
366.1  60221.075  16.444878
366.2  69179.321  16.444798
366.3  78556.89  16.444718
366.4  91346.359  16.444637
366.5  103812.75  16.444556
366.6  117510.49  16.444476
366.7  129170.51  16.444395
366.8  144915.01  16.444314
366.9  156251.14  16.444234
367  166481.18  16.444153
367.1  174203.9  16.444072
367.2  178361.89  16.443991
367.3  180288.3  16.44391
367.4  178694.47  16.443829
367.5  171567.34  16.443748
367.6  162350.18  16.443667
367.7  151430.72  16.443586
367.8  137471.68  16.443504
367.9  122485.11  16.443423
368  107464.95  16.443342
368.1  91159.82  16.44326
368.2  77640.313  16.443179
368.3  65141.092  16.443097
368.4  55556.6  16.443016
368.5  46318.43  16.442934
368.6  37689.812  16.442852
368.7  32191.195  16.442771
368.8  27135.347  16.442689
368.9  23678.136  16.442607
369  20989.654  16.442525
369.1  18693.3  16.442443
369.2  16928.562  16.442361
369.3  15472.076  16.442279
369.4  14631.972  16.442197
369.5  14251.862  16.442115
369.6  13054.098  16.442033
369.7  12858.952  16.44195
369.8  12580.177  16.441868
369.9  11692.825  16.441786
370  10935.526  16.441703
370.1  10849.514  16.441621
370.2  10873.989  16.441538
370.3  10162.361  16.441456
370.4  10167.206  16.441373
370.5  10628.544  16.441291
370.6  10248.226  16.441208
370.7  9824.5801  16.441125
370.8  9595.2338  16.441042
370.9  9795.5656  16.440959
371  9518.5954  16.440876
371.1  9613.65  16.440793
371.2  9865.7431  16.44071
371.3  9232.9154  16.440627
371.4  9279.7123  16.440544
371.5  8960.2075  16.440461
371.6  9334.3157  16.440378
371.7  8985.7798  16.440295
371.8  8823.4251  16.440211
371.9  9059.6088  16.440128
372  8835.9317  16.440044
372.1  9481.1374  16.439961
372.2  9253.542  16.439877
372.3  8743.4989  16.439794
372.4  9096.549  16.43971
372.5  8769.3243  16.439626
372.6  8728.4962  16.439543
372.7  8845.353  16.439459
372.8  8794.0735  16.439375
372.9  9049.2119  16.439291
373  9340.4029  16.439207
373.1  8674.7842  16.439123
373.2  8305.4139  16.439039
373.3  8790.9385  16.438955
373.4  8963.3006  16.438871
373.5  8955.9815  16.438787
373.6  8751.5439  16.438703
373.7  8799.3477  16.438618
373.8  8810.6856  16.438534
373.9  8700.9404  16.438449
374  8822.4557  16.438365
374.1  8775.8793  16.438281
374.2  8888.8436  16.438196
374.3  9294.8628  16.438111
374.4  8920.6477  16.438027
374.5  9003.437  16.437942
374.6  8846.1544  16.437857
374.7  8605.7603  16.437772
374.8  8622.2186  16.437688
374.9  8239.0084  16.437603
375  8747.8814  16.437518

