# Created by:        SpecsLab Prodigy, Version 4.84.1-r101483 
#
# XY-Serializer Export Settings:
#   Comment Prefix:           #
#   Output Meta Data:         yes
#   Energy Axis:              Kinetic Energy
#   Count Rate:               Counts per Second
#   Separate Scan Data:       no
#   Separate Channel Data:    no
#   External Channel Data:    yes
#   Transmission Function:    yes
#   Error Bar:                no
#   Operation Results:        yes
#   Time Zone Format:         UTC
#
# Group:                        L-serine pH 7 500 mM
#
# Region:                       VBM
# Spectrum ID:                  613
# Acquisition Date:             03/12/26 05:27:13 UTC
# Analysis Method:              XPS
# Analyzer:                     Phoibos
# Analyzer Lens:                LargeArea:3.5kV
# Analyzer Slit:                5:7x20\B:open
# Scan Mode:                    FixedAnalyzerTransmission
# Curves/Scan:                  1
# Values/Curve:                 251
# Dwell Time:                   0.1
# Excitation Energy:            1210
# Kinetic Energy:               1190
# Pass Energy:                  10
# Bias Voltage:                 220
# Detector Voltage:             1920
# Eff. Workfunction:            0
# Source:                       Monochromator
# Comment:                      

# Cycle: 0
#
# Number of Scans: 2

# Cycle: 0, Curve: 0
#
# Acquisition Date:             03/12/26 05:27:13 UTC
# ColumnLabels:                 energy counts/s transmission
#
1190  2.65515  6.9380024
1190.1  4.40035  6.937908
1190.2  7.60839  6.9378136
1190.3  8.67691  6.9377192
1190.4  14.9487  6.9376248
1190.5  8.893665  6.9375304
1190.6  12.774535  6.937436
1190.7  8.2933  6.9373416
1190.8  4.40415  6.9372473
1190.9  3.5448  6.9371529
1191  3.3363  6.9370585
1191.1  3.1189  6.9369642
1191.2  2.6469  6.9368698
1191.3  9.404845  6.9367755
1191.4  11.880405  6.9366811
1191.5  3.9745  6.9365868
1191.6  2.09335  6.9364924
1191.7  8.711  6.9363981
1191.8  11.71935  6.9363038
1191.9  17.259545  6.9362095
1192  2.310105  6.9361151
1192.1  8.41335  6.9360208
1192.2  14.19125  6.9359265
1192.3  19.179163  6.9358322
1192.4  18.216237  6.9357379
1192.5  1.75345  6.9356436
1192.6  11.70225  6.9355493
1192.7  6.5443  6.935455
1192.8  8.84307  6.9353608
1192.9  10.425205  6.9352665
1193  5.731725  6.9351722
1193.1  4.83005  6.9350779
1193.2  0.16995  6.9349837
1193.3  4.7024  6.9348894
1193.4  0.2976  6.9347952
1193.5  5.16615  6.9347009
1193.6  10.089809  6.9346067
1193.7  15.037841  6.9345124
1193.8  9.489495  6.9344182
1193.9  8.374155  6.934324
1194  6.37055  6.9342298
1194.1  6.7105  6.9341355
1194.2  7.4384  6.9340413
1194.3  1.3231  6.9339471
1194.4  0.72795  6.9338529
1194.5  4.27205  6.9337587
1194.6  0  6.9336645
1194.7  3.9707  6.9335703
1194.8  16.02555  6.9334761
1194.9  10.00375  6.933382
1195  3.034265  6.9332878
1195.1  9.443354  6.9327076
1195.2  22.693031  6.9321276
1195.3  5.940195  6.9315476
1195.4  6.663705  6.9309678
1195.5  8.6769  6.930388
1195.6  13.92325  6.9298084
1195.7  4.6253  6.9292288
1195.8  6.068545  6.9286494
1195.9  7.051039  6.92807
1196  11.025516  6.9274907
1196.1  11.40845  6.9269115
1196.2  4.44645  6.9263325
1196.3  0.4682  6.9257535
1196.4  19.69419  6.9251746
1196.5  13.34011  6.9245958
1196.6  18.50695  6.9240171
1196.7  10.3822  6.9234385
1196.8  4.61709  6.92286
1196.9  6.28081  6.9222816
1197  4.8679  6.9217033
1197.1  1.84255  6.9211251
1197.2  8.24725  6.920547
1197.3  1.75275  6.919969
1197.4  5.1283  6.9193911
1197.5  9.8717  6.9188133
1197.6  0  6.9182356
1197.7  4.5703  6.9176579
1197.8  1.540545  6.9170804
1197.9  3.889155  6.916503
1198  8.80524  6.9159256
1198.1  17.77381  6.9153484
1198.2  7.81685  6.9147712
1198.3  14.2683  6.9141942
1198.4  11.3358  6.9136172
1198.5  8.4089  6.9130404
1198.6  11.5911  6.9124636
1198.7  0  6.911887
1198.8  2.39165  6.9113104
1198.9  2.60835  6.9107339
1199  2.859845  6.9101575
1199.1  12.174255  6.9095813
1199.2  6.45965  6.9090051
1199.3  6.1576  6.908429
1199.4  4.05535  6.907853
1199.5  15.08535  6.9072771
1199.6  13.633845  6.9067013
1199.7  4.574105  6.9061256
1199.8  3.80455  6.90555
1199.9  6.15315  6.9049745
1200  3.37035  6.9043991
1200.1  15.987  6.9038238
1200.2  12.08955  6.9032485
1200.3  4.8339  6.9026734
1200.4  3.7615  6.9020984
1200.5  1.110845  6.9015234
1200.6  9.82557  6.9009486
1200.7  4.063585  6.9003739
1200.8  3.5878  6.8997992
1200.9  20.16995  6.8992247
1201  1.24225  6.8986502
1201.1  0  6.8980758
1201.2  0.085319  6.8975016
1201.3  14.268281  6.8969274
1201.4  14.74472  6.8963533
1201.5  6.62963  6.8957794
1201.6  6.91895  6.8952055
1201.7  2.43395  6.8946317
1201.8  11.74905  6.894058
1201.9  10.732365  6.8934844
1202  15.935735  6.8929109
1202.1  9.783265  6.8923375
1202.2  14.625385  6.8917642
1202.3  2.09335  6.891191
1202.4  0  6.8906178
1202.5  4.8256  6.8900448
1202.6  3.93215  6.8894719
1202.7  15.41695  6.8888991
1202.8  18.64284  6.8883263
1202.9  8.54856  6.8877537
1203  7.1787  6.8871811
1203.1  6.15315  6.8866087
1203.2  1.15765  6.8860363
1203.3  8.66795  6.8854641
1203.4  8.510715  6.8848919
1203.5  7.263985  6.8843198
1203.6  6.79135  6.8837478
1203.7  15.13205  6.883176
1203.8  6.280845  6.8826042
1203.9  6.497505  6.8820325
1204  2.089569  6.8814609
1204.1  10.429681  6.8808894
1204.2  6.370615  6.880318
1204.3  6.110135  6.8797467
1204.4  5.55354  6.8791754
1204.5  9.48946  6.8786043
1204.6  15.84665  6.8780333
1204.7  8.170145  6.8774624
1204.8  9.655675  6.8768915
1204.9  9.06353  6.8763208
1205  2.221  6.8757501
1205.1  0  6.8751796
1205.2  3.80005  6.8746091
1205.3  1.19995  6.8740387
1205.4  6.8388  6.8734685
1205.5  3.6294  6.8728983
1205.6  9.31952  6.8723282
1205.7  5.21228  6.8717582
1205.8  6.91964  6.8711883
1205.9  8.08036  6.8706185
1206  7.43465  6.8700488
1206.1  7.56535  6.8694792
1206.2  4.31505  6.8689097
1206.3  3.0766  6.8683403
1206.4  8.80005  6.867771
1206.5  6.02999  6.8672017
1206.6  7.77831  6.8666326
1206.7  0  6.8660636
1206.8  5.2938  6.8654946
1206.9  11.285245  6.8649258
1207  5.552855  6.864357
1207.1  10.7324  6.8637883
1207.2  8.204235  6.8632198
1207.3  8.114415  6.8626513
1207.4  2.18315  6.8620829
1207.5  3.6339  6.8615146
1207.6  0  6.8609464
1207.7  7.51995  6.8603783
1207.8  19.05915  6.8598103
1207.9  4.91465  6.8592424
1208  8.3704  6.8586746
1208.1  14.323275  6.8581069
1208.2  3.331825  6.8575392
1208.3  8.294015  6.8569717
1208.4  10.63816  6.8564043
1208.5  7.221025  6.8558369
1208.6  1.32755  6.8552696
1208.7  0  6.8547025
1208.8  2.00874  6.8541354
1208.9  2.99126  6.8535684
1209  3.3704  6.8530016
1209.1  7.9957  6.8524348
1209.2  8.54479  6.8518681
1209.3  12.77901  6.8513015
1209.4  12.2633  6.850735
1209.5  3.33635  6.8501686
1209.6  3.804509  6.8496023
1209.7  12.940041  6.849036
1209.8  9.4086  6.8484699
1209.9  7.996365  6.8479039
1210  7.560935  6.8473379
1210.1  4.059795  6.8467721
1210.2  0.940205  6.8462063
1210.3  6.191695  6.8456407
1210.4  3.808305  6.8450751
1210.5  5.43035  6.8445096
1210.6  5.2976  6.8439442
1210.7  4.27205  6.843379
1210.8  6.3193  6.8428138
1210.9  7.31529  6.8422487
1211  9.61266  6.8416836
1211.1  7.99125  6.8411187
1211.2  6.749  6.8405539
1211.3  7.0125  6.8399892
1211.4  0  6.8394245
1211.5  4.7788  6.83886
1211.6  5.2212  6.8382956
1211.7  0  6.8377312
1211.8  4.01305  6.8371669
1211.9  12.051  6.8366028
1212  9.31954  6.8360387
1212.1  13.45945  6.8354747
1212.2  16.32316  6.8349108
1212.3  12.00872  6.834347
1212.4  11.75723  6.8337833
1212.5  3.5871  6.8332197
1212.6  22.052465  6.8326562
1212.7  24.568935  6.8320928
1212.8  0.85935  6.8315294
1212.9  6.834345  6.8309662
1213  3.165655  6.830403
1213.1  9.78325  6.82984
1213.2  0.21675  6.829277
1213.3  8.2049  6.8287142
1213.4  6.7951  6.8281514
1213.5  2.6046  6.8275887
1213.6  14.4427  6.8270261
1213.7  12.8636  6.8264636
1213.8  12.26845  6.8259012
1213.9  16.1487  6.8253389
1214  8.6762  6.8247767
1214.1  2.99575  6.8242146
1214.2  7.991965  6.8236525
1214.3  5.812585  6.8230906
1214.4  1.19545  6.8225287
1214.5  0.59585  6.821967
1214.6  7.481415  6.8214053
1214.7  16.961285  6.8208437
1214.8  4.96145  6.8202823
1214.9  4.6601  6.8197209
1215  13.753295  6.8191596

