# Created by:        SpecsLab Prodigy, Version 4.84.1-r101483 
#
# XY-Serializer Export Settings:
#   Comment Prefix:           #
#   Output Meta Data:         yes
#   Energy Axis:              Kinetic Energy
#   Count Rate:               Counts per Second
#   Separate Scan Data:       no
#   Separate Channel Data:    no
#   External Channel Data:    yes
#   Transmission Function:    yes
#   Error Bar:                no
#   Operation Results:        yes
#   Time Zone Format:         UTC
#
# Group:                        L-serine pH 7 500 mM
#
# Region:                       VBM
# Spectrum ID:                  637
# Acquisition Date:             03/12/26 07:31:20 UTC
# Analysis Method:              XPS
# Analyzer:                     Phoibos
# Analyzer Lens:                LargeArea:3.5kV
# Analyzer Slit:                5:7x20\B:open
# Scan Mode:                    FixedAnalyzerTransmission
# Curves/Scan:                  1
# Values/Curve:                 251
# Dwell Time:                   0.1
# Excitation Energy:            930
# Kinetic Energy:               910
# Pass Energy:                  10
# Bias Voltage:                 220
# Detector Voltage:             1920
# Eff. Workfunction:            0
# Source:                       Monochromator
# Comment:                      

# Cycle: 0
#
# Number of Scans: 2

# Cycle: 0, Curve: 0
#
# Acquisition Date:             03/12/26 07:31:20 UTC
# ColumnLabels:                 energy counts/s transmission
#
910  30.204095  7.2224573
910.1  24.063495  7.2223479
910.2  35.298305  7.2222385
910.3  25.04677  7.2221291
910.4  28.701335  7.2220197
910.5  33.3541  7.2219104
910.6  27.21657  7.221801
910.7  35.609275  7.2216917
910.8  11.530955  7.2215823
910.9  15.64259  7.221473
911  12.26331  7.2213636
911.1  21.92479  7.2212543
911.2  31.95231  7.221145
911.3  29.579314  7.2210357
911.4  32.905936  7.2209264
911.5  18.4254  7.2208171
911.6  17.6513  7.2207078
911.7  20.642685  7.2205985
911.8  31.957515  7.2204892
911.9  17.399915  7.2203799
912  15.037785  7.2202706
912.1  15.6894  7.2201614
912.2  22.988215  7.2200521
912.3  27.093335  7.2199429
912.4  26.79511  7.2198336
912.5  11.57839  7.2197244
912.6  19.02192  7.2196151
912.7  14.26763  7.2195059
912.8  18.41712  7.2193967
912.9  18.42612  7.2192874
913  18.02908  7.2191782
913.1  33.42239  7.219069
913.2  13.76454  7.2189598
913.3  15.16245  7.2188506
913.4  14.23795  7.2187414
913.5  25.75822  7.2186323
913.6  34.748505  7.2185231
913.7  24.655625  7.2184139
913.8  25.5188  7.2183047
913.9  35.842905  7.2181956
914  28.731885  7.2180864
914.1  26.82911  7.2179773
914.2  24.10285  7.2178681
914.3  37.433915  7.217759
914.4  37.77898  7.2176499
914.5  33.335725  7.2175408
914.6  42.9882  7.2174316
914.7  33.765939  7.2173225
914.8  41.492291  7.2172134
914.9  25.72355  7.2171043
915  16.4937  7.2169952
915.1  37.52004  7.2168861
915.2  72.89846  7.2167771
915.3  52.876285  7.216668
915.4  36.33506  7.2165589
915.5  42.593289  7.2164499
915.6  72.250546  7.2163408
915.7  55.097434  7.2162317
915.8  64.778715  7.2161227
915.9  59.583756  7.2160137
916  65.24184  7.2159046
916.1  74.825625  7.2157956
916.2  67.57044  7.2156866
916.3  63.637679  7.2155776
916.4  46.720181  7.2154686
916.5  73.753835  7.2153596
916.6  64.497078  7.2152506
916.7  71.762112  7.2151416
916.8  111.17043  7.2150326
916.9  75.587589  7.2149236
917  84.534261  7.2148146
917.1  68.17587  7.2147057
917.2  60.130715  7.2145967
917.3  79.006084  7.2144877
917.4  78.977616  7.2143788
917.5  66.493731  7.2142699
917.6  88.025334  7.2141609
917.7  70.95361  7.214052
917.8  64.654999  7.2139431
917.9  81.824641  7.2138341
918  52.404334  7.2137252
918.1  65.048166  7.2136163
918.2  74.351515  7.2135074
918.3  45.268685  7.2133985
918.4  54.14515  7.2132896
918.5  68.455674  7.2131808
918.6  76.319336  7.2130719
918.7  99.48495  7.212963
918.8  99.1889  7.2128541
918.9  110.24559  7.2127453
919  93.187495  7.2126364
919.1  102.40985  7.2125276
919.2  139.99551  7.2124187
919.3  141.8084  7.2123099
919.4  152.80187  7.2122011
919.5  184.7563  7.2120923
919.6  172.73996  7.2119834
919.7  167.85485  7.2118746
919.8  137.62902  7.2117658
919.9  120.15383  7.211657
920  133.17435  7.2115482
920.1  133.06043  7.2114394
920.2  151.46301  7.2113307
920.3  181.80997  7.2112219
920.4  151.84634  7.2111131
920.5  174.99549  7.2110044
920.6  163.50683  7.2108956
920.7  156.72471  7.2107868
920.8  170.36814  7.2106781
920.9  142.75388  7.2105694
921  174.43924  7.2104606
921.1  184.45539  7.2103519
921.2  194.39934  7.2102432
921.3  162.92274  7.2101345
921.4  173.83044  7.2100257
921.5  165.79032  7.209917
921.6  160.40425  7.2098083
921.7  161.09927  7.2096997
921.8  147.6493  7.209591
921.9  134.01366  7.2094823
922  115.42375  7.2093736
922.1  126.04282  7.2092649
922.2  101.50259  7.2091563
922.3  111.1412  7.2090476
922.4  124.87179  7.208939
922.5  130.20836  7.2088303
922.6  128.77053  7.2087217
922.7  134.17969  7.2086131
922.8  142.3095  7.2085044
922.9  107.65454  7.2083958
923  148.43241  7.2082872
923.1  162.76283  7.2081786
923.2  143.6396  7.20807
923.3  144.76566  7.2079614
923.4  124.11104  7.2078528
923.5  138.28831  7.2077442
923.6  87.022035  7.2076356
923.7  85.94257  7.2075271
923.8  78.52565  7.2074185
923.9  62.80571  7.2073099
924  51.613115  7.2072014
924.1  31.045809  7.2070928
924.2  25.894131  7.2069843
924.3  27.91045  7.2068758
924.4  21.918875  7.2067672
924.5  22.651375  7.2066587
924.6  12.186965  7.2065502
924.7  12.906585  7.2064417
924.8  19.17855  7.2063332
924.9  15.4809  7.2062247
925  20.20913  7.2061162
925.1  12.56917  7.2060077
925.2  7.4725  7.2058992
925.3  8.6724  7.2057907
925.4  11.970195  7.2056823
925.5  10.046805  7.2055738
925.6  19.869283  7.2054653
925.7  16.968817  7.2053569
925.8  4.69795  7.2052484
925.9  10.7665  7.20514
926  13.54855  7.2050316
926.1  11.545  7.2049231
926.2  7.4295  7.2048147
926.3  15.46825  7.2047063
926.4  15.97872  7.2045979
926.5  15.39113  7.2044895
926.6  0.1744  7.2043811
926.7  8.843065  7.2042727
926.8  10.812585  7.2041643
926.9  10.9743  7.2040559
927  16.4596  7.2039475
927.1  8.4595  7.2038392
927.2  12.3108  7.2037308
927.3  9.8679  7.2036224
927.4  6.71495  7.2035141
927.5  14.784  7.2034057
927.6  15.7733  7.2032974
927.7  0.8511  7.2031891
927.8  7.30635  7.2030807
927.9  1.84255  7.2029724
928  7.6046  7.2028641
928.1  7.8213  7.2027558
928.2  10.3829  7.2026475
928.3  7.30635  7.2025392
928.4  6.88485  7.2024309
928.5  0  7.2023226
928.6  0  7.2022143
928.7  3.93215  7.202106
928.8  8.84307  7.2019978
928.9  21.58288  7.2018895
929  7.7738  7.2017813
929.1  5.6471  7.201673
929.2  10.719  7.2015648
929.3  8.034315  7.2014565
929.4  13.978925  7.2013483
929.5  9.48876  7.2012401
929.6  2.85984  7.2011318
929.7  9.02126  7.2010236
929.8  6.149369  7.2009154
929.9  16.969531  7.2008072
930  0  7.200699
930.1  3.1619  7.2005908
930.2  6.4084  7.2004826
930.3  6.11087  7.2003744
930.4  20.63888  7.2002663
930.5  19.953185  7.2001581
930.6  18.726765  7.2000499
930.7  7.85985  7.1999418
930.8  6.0723  7.1998336
930.9  8.932165  7.1997255
931  2.135685  7.1996174
931.1  0  7.1995092
931.2  0  7.1994011
931.3  1.75345  7.199293
931.4  11.8722  7.1991849
931.5  9.966615  7.1990767
931.6  10.850435  7.1989686
931.7  2.05105  7.1988605
931.8  3.50625  7.1987525
931.9  0  7.1986444
932  8.3704  7.1985363
932.1  1.6296  7.1984282
932.2  9.141345  7.1983202
932.3  15.858655  7.1982121
932.4  2.6469  7.198104
932.5  2.3531  7.197996
932.6  6.66885  7.1978879
932.7  14.27205  7.1977799
932.8  4.6594  7.1976719
932.9  9.18295  7.1975638
933  19.52355  7.1974558
933.1  7.868119  7.1973478
933.2  15.174426  7.1972398
933.3  14.612655  7.1971318
933.4  5.1699  7.1970238
933.5  2.8681  7.1969158
933.6  1.3661  7.1968078
933.7  5.515  7.1966998
933.8  3.8424  7.1965919
933.9  8.336295  7.1964839
934  1.668155  7.1963759
934.1  8.412719  7.196268
934.2  8.638331  7.19616
934.3  2.221  7.1960521
934.4  0  7.1959442
934.5  0  7.1958362
934.6  0  7.1957283
934.7  4.4427  7.1956204
934.8  4.187419  7.1955125
934.9  6.369881  7.1954046
935  0  7.1952967

