# Created by:        SpecsLab Prodigy, Version 4.84.1-r101483 
#
# XY-Serializer Export Settings:
#   Comment Prefix:           #
#   Output Meta Data:         yes
#   Energy Axis:              Kinetic Energy
#   Count Rate:               Counts per Second
#   Separate Scan Data:       no
#   Separate Channel Data:    no
#   External Channel Data:    yes
#   Transmission Function:    yes
#   Error Bar:                no
#   Operation Results:        yes
#   Time Zone Format:         UTC
#
# Group:                        L-serine pH 7 500 mM
#
# Region:                       N 1s 600
# Spectrum ID:                  626
# Acquisition Date:             03/12/26 06:34:59 UTC
# Analysis Method:              XPS
# Analyzer:                     Phoibos
# Analyzer Lens:                LargeArea:3.5kV
# Analyzer Slit:                5:7x20\B:open
# Scan Mode:                    FixedAnalyzerTransmission
# Curves/Scan:                  1
# Values/Curve:                 401
# Dwell Time:                   0.1
# Excitation Energy:            1010
# Kinetic Energy:               590
# Pass Energy:                  10
# Bias Voltage:                 220
# Detector Voltage:             1920
# Eff. Workfunction:            0
# Source:                       Monochromator
# Comment:                      3rd

# Cycle: 0
#
# Number of Scans: 8

# Cycle: 0, Curve: 0
#
# Acquisition Date:             03/12/26 06:34:59 UTC
# ColumnLabels:                 energy counts/s transmission
#
590  154.75762  7.6057521
590.1  136.31207  7.6056214
590.2  161.88868  7.6054908
590.3  159.17506  7.6053602
590.4  145.00175  7.6052296
590.5  151.68587  7.605099
590.6  150.24796  7.6049683
590.7  148.64544  7.6048378
590.8  143.98597  7.6047072
590.9  144.54215  7.6045766
591  156.68775  7.604446
591.1  153.58124  7.6043154
591.2  144.34113  7.6041849
591.3  144.82535  7.6040543
591.4  156.05328  7.6039238
591.5  140.90842  7.6037932
591.6  144.39521  7.6036627
591.7  147.73917  7.6035322
591.8  141.39641  7.6034016
591.9  161.00382  7.6032711
592  149.42837  7.6031406
592.1  146.84253  7.6030101
592.2  135.44026  7.6028796
592.3  131.98358  7.6027491
592.4  145.66681  7.6026186
592.5  148.88785  7.6024882
592.6  130.23595  7.6023577
592.7  146.30805  7.6022272
592.8  131.19374  7.6020968
592.9  150.1793  7.6019663
593  124.27026  7.6018359
593.1  138.80477  7.6017055
593.2  133.9401  7.601575
593.3  118.59487  7.6014446
593.4  140.40547  7.6013142
593.5  126.11153  7.6011838
593.6  129.13053  7.6010534
593.7  149.44413  7.600923
593.8  130.62538  7.6007926
593.9  145.75836  7.6006622
594  136.09931  7.6005319
594.1  146.16206  7.6004015
594.2  149.25657  7.6002711
594.3  161.51635  7.6001408
594.4  137.41997  7.6000104
594.5  127.94395  7.5998801
594.6  156.95958  7.5997498
594.7  150.71682  7.5996194
594.8  143.66997  7.5994891
594.9  157.73882  7.5993588
595  144.8505  7.5992285
595.1  157.7031  7.5990982
595.2  140.79647  7.5989679
595.3  142.64893  7.5988376
595.4  129.4001  7.5987074
595.5  146.16495  7.5985771
595.6  134.71855  7.5984468
595.7  135.3937  7.5983166
595.8  132.87579  7.5981863
595.9  150.36633  7.5980561
596  127.12578  7.5979258
596.1  159.50007  7.5977956
596.2  134.9153  7.5976654
596.3  153.61096  7.5975352
596.4  161.06952  7.5974049
596.5  124.35077  7.5972747
596.6  125.42348  7.5971445
596.7  138.05807  7.5970144
596.8  136.62581  7.5968842
596.9  139.01462  7.596754
597  127.17009  7.5966238
597.1  142.65951  7.5964937
597.2  130.74722  7.5963635
597.3  142.25485  7.5962334
597.4  151.22229  7.5961032
597.5  140.69109  7.5959731
597.6  148.26605  7.595843
597.7  161.92964  7.5957128
597.8  143.45593  7.5955827
597.9  148.63751  7.5954526
598  133.13249  7.5953225
598.1  142.69024  7.5951924
598.2  126.46745  7.5950623
598.3  125.68919  7.5949322
598.4  135.25981  7.5948022
598.5  126.92647  7.5946721
598.6  132.2898  7.594542
598.7  123.49751  7.594412
598.8  139.80826  7.5942819
598.9  153.35643  7.5941519
599  138.39821  7.5940219
599.1  136.64688  7.5938918
599.2  125.43235  7.5937618
599.3  108.9926  7.5936318
599.4  120.04302  7.5935018
599.5  139.70275  7.5933718
599.6  150.28794  7.5932418
599.7  127.85951  7.5931118
599.8  141.78946  7.5929818
599.9  144.5276  7.5928519
600  135.84108  7.5927219
600.1  145.48422  7.5925919
600.2  153.80734  7.592462
600.3  131.70855  7.592332
600.4  125.62208  7.5922021
600.5  125.93734  7.5920722
600.6  120.90233  7.5919422
600.7  143.3679  7.5918123
600.8  121.71395  7.5916824
600.9  121.79613  7.5915525
601  132.64659  7.5914226
601.1  122.11374  7.5912927
601.2  122.77441  7.5911628
601.3  108.88508  7.591033
601.4  105.44215  7.5909031
601.5  109.5764  7.5907732
601.6  123.26852  7.5906434
601.7  119.49779  7.5905135
601.8  126.53728  7.5903837
601.9  124.34898  7.5902538
602  136.64625  7.590124
602.1  143.02759  7.5899942
602.2  137.71232  7.5898644
602.3  126.57391  7.5897346
602.4  116.63978  7.5896048
602.5  123.28323  7.589475
602.6  132.33196  7.5893452
602.7  122.64866  7.5892154
602.8  124.19419  7.5890856
602.9  119.29107  7.5889559
603  116.85997  7.5888261
603.1  128.27224  7.5886963
603.2  137.14672  7.5885666
603.3  127.11929  7.5884368
603.4  122.36995  7.5883071
603.5  125.32998  7.5881774
603.6  107.27941  7.5880477
603.7  126.99737  7.587918
603.8  141.43966  7.5877882
603.9  135.08336  7.5876585
604  126.12599  7.5875289
604.1  134.26555  7.5873992
604.2  134.11226  7.5872695
604.3  124.57179  7.5871398
604.4  118.46073  7.5870101
604.5  143.6971  7.5868805
604.6  124.07567  7.5867508
604.7  114.02343  7.5866212
604.8  123.93644  7.5864916
604.9  139.10416  7.5863619
605  147.74826  7.5862323
605.1  144.60342  7.5861027
605.2  138.83172  7.5859731
605.3  135.72357  7.5858435
605.4  148.34322  7.5857139
605.5  137.11116  7.5855843
605.6  134.35112  7.5854547
605.7  121.10991  7.5853251
605.8  117.44012  7.5851955
605.9  117.51657  7.585066
606  136.04088  7.5849364
606.1  142.33515  7.5848069
606.2  157.83804  7.5846773
606.3  145.90251  7.5845478
606.4  152.13115  7.5844183
606.5  146.32018  7.5842887
606.6  147.56413  7.5841592
606.7  157.18429  7.5840297
606.8  177.43778  7.5839002
606.9  147.00377  7.5837707
607  162.50293  7.5836412
607.1  194.34581  7.5835118
607.2  216.51436  7.5833823
607.3  222.87674  7.5832528
607.4  245.8526  7.5831233
607.5  263.10929  7.5829939
607.6  303.5303  7.5828644
607.7  318.18297  7.582735
607.8  331.96034  7.5826056
607.9  374.22593  7.5824761
608  354.16677  7.5823467
608.1  382.61007  7.5822173
608.2  392.5802  7.5820879
608.3  391.10974  7.5819585
608.4  379.54269  7.5818291
608.5  355.1038  7.5816997
608.6  325.86899  7.5815703
608.7  302.24551  7.581441
608.8  278.92784  7.5813116
608.9  264.66926  7.5811823
609  205.68808  7.5810529
609.1  204.63532  7.5809236
609.2  225.54233  7.5807942
609.3  186.00262  7.5806649
609.4  174.72384  7.5805356
609.5  162.95646  7.5804062
609.6  148.88968  7.5802769
609.7  144.37914  7.5801476
609.8  139.95716  7.5800183
609.9  149.50087  7.579889
610  149.58075  7.5797598
610.1  148.88321  7.5796305
610.2  140.60006  7.5795012
610.3  143.4693  7.579372
610.4  132.97532  7.5792427
610.5  124.66543  7.5791134
610.6  143.93758  7.5789842
610.7  128.18242  7.578855
610.8  128.54528  7.5787257
610.9  133.94478  7.5785965
611  136.40564  7.5784673
611.1  140.17853  7.5783381
611.2  131.86548  7.5782089
611.3  132.80884  7.5780797
611.4  128.77929  7.5779505
611.5  112.15766  7.5778213
611.6  125.30787  7.5776922
611.7  123.0643  7.577563
611.8  117.58175  7.5774338
611.9  120.37518  7.5773047
612  117.39774  7.5771755
612.1  137.5999  7.5770464
612.2  137.32294  7.5769173
612.3  111.76053  7.5767881
612.4  119.01132  7.576659
612.5  132.04261  7.5765299
612.6  126.61864  7.5764008
612.7  112.00127  7.5762717
612.8  121.23684  7.5761426
612.9  114.83736  7.5760135
613  150.72801  7.5758845
613.1  128.77387  7.5757554
613.2  128.94256  7.5756263
613.3  136.28012  7.5754973
613.4  126.31794  7.5753682
613.5  126.72409  7.5752392
613.6  140.63531  7.5751101
613.7  144.02795  7.5749811
613.8  135.54388  7.5748521
613.9  130.34155  7.5747231
614  113.15982  7.5745941
614.1  148.96198  7.5744651
614.2  122.53241  7.5743361
614.3  131.54745  7.5742071
614.4  140.41099  7.5740781
614.5  117.92026  7.5739491
614.6  94.211748  7.5738201
614.7  109.5345  7.5736912
614.8  138.07151  7.5735622
614.9  127.01254  7.5734333
615  119.22758  7.5733043
615.1  110.86991  7.5731754
615.2  117.69735  7.5730465
615.3  110.50452  7.5729176
615.4  127.72026  7.5727887
615.5  117.40051  7.5726597
615.6  122.67626  7.5725308
615.7  126.76117  7.572402
615.8  125.62463  7.5722731
615.9  125.06497  7.5721442
616  127.05218  7.5720153
616.1  126.62727  7.5718865
616.2  113.50563  7.5717576
616.3  124.51205  7.5716287
616.4  115.80017  7.5714999
616.5  130.37446  7.5713711
616.6  129.15301  7.5712422
616.7  131.96487  7.5711134
616.8  126.31994  7.5709846
616.9  124.2352  7.5708558
617  124.75658  7.570727
617.1  135.64532  7.5705982
617.2  137.92894  7.5704694
617.3  138.81363  7.5703406
617.4  162.0406  7.5702118
617.5  158.88217  7.5700831
617.6  143.07929  7.5699543
617.7  164.68744  7.5698256
617.8  125.61773  7.5696968
617.9  121.3598  7.5695681
618  122.22487  7.5694393
618.1  125.13141  7.5693106
618.2  106.04714  7.5691819
618.3  150.62966  7.5690532
618.4  128.70727  7.5689245
618.5  133.69679  7.5687958
618.6  144.25166  7.5686671
618.7  126.18673  7.5685384
618.8  131.53608  7.5684097
618.9  132.47811  7.568281
619  126.74464  7.5681524
619.1  118.14501  7.5680237
619.2  116.81481  7.5678951
619.3  130.17926  7.5677664
619.4  110.69514  7.5676378
619.5  110.49533  7.5675091
619.6  131.69069  7.5673805
619.7  127.52422  7.5672519
619.8  113.40949  7.5671233
619.9  119.01111  7.5669947
620  133.87717  7.5668661
620.1  137.67925  7.5667375
620.2  135.25178  7.5666089
620.3  109.85956  7.5664803
620.4  124.12218  7.5663518
620.5  127.74691  7.5662232
620.6  137.51782  7.5660947
620.7  113.21215  7.5659661
620.8  129.96893  7.5658376
620.9  156.18062  7.565709
621  136.10917  7.5655805
621.1  119.23091  7.565452
621.2  145.09174  7.5653235
621.3  137.65092  7.565195
621.4  131.04008  7.5650665
621.5  133.58123  7.564938
621.6  133.45713  7.5648095
621.7  137.20948  7.564681
621.8  117.62882  7.5645525
621.9  116.16711  7.5644241
622  131.94886  7.5642956
622.1  120.49066  7.5641671
622.2  138.11341  7.5640387
622.3  124.03532  7.5639103
622.4  129.18379  7.5637818
622.5  125.5864  7.5636534
622.6  124.55391  7.563525
622.7  118.462  7.5633966
622.8  119.87792  7.5632682
622.9  126.26878  7.5631398
623  117.15694  7.5630114
623.1  130.09167  7.562883
623.2  123.77127  7.5627546
623.3  139.92992  7.5626263
623.4  129.98478  7.5624979
623.5  127.4496  7.5623695
623.6  119.06452  7.5622412
623.7  120.62464  7.5621128
623.8  120.72745  7.5619845
623.9  135.43579  7.5618562
624  128.27766  7.5617279
624.1  137.89998  7.5615996
624.2  129.21229  7.5614712
624.3  126.29331  7.5613429
624.4  137.70577  7.5612146
624.5  134.16062  7.5610864
624.6  144.09609  7.5609581
624.7  118.13973  7.5608298
624.8  132.95245  7.5607015
624.9  127.23442  7.5605733
625  130.73179  7.560445
625.1  126.00699  7.5603168
625.2  126.53786  7.5601885
625.3  147.25767  7.5600603
625.4  141.02858  7.5599321
625.5  119.70009  7.5598039
625.6  114.68482  7.5596757
625.7  130.01607  7.5595475
625.8  120.19412  7.5594193
625.9  126.80549  7.5592911
626  145.98373  7.5591629
626.1  124.82982  7.5590347
626.2  132.96908  7.5589065
626.3  135.06298  7.5587784
626.4  95.104702  7.5586502
626.5  112.81326  7.5585221
626.6  137.59357  7.5583939
626.7  137.32274  7.5582658
626.8  149.72531  7.5581377
626.9  133.16796  7.5580095
627  141.13275  7.5578814
627.1  134.18172  7.5577533
627.2  141.10711  7.5576252
627.3  135.83868  7.5574971
627.4  132.77414  7.557369
627.5  105.87828  7.557241
627.6  120.23698  7.5571129
627.7  125.23143  7.5569848
627.8  118.14047  7.5568568
627.9  104.35046  7.5567287
628  114.18126  7.5566007
628.1  123.49181  7.5564726
628.2  106.26313  7.5563446
628.3  114.15239  7.5562166
628.4  119.58822  7.5560886
628.5  119.25005  7.5559605
628.6  112.45817  7.5558325
628.7  117.0574  7.5557045
628.8  147.03998  7.5555766
628.9  138.23432  7.5554486
629  112.97215  7.5553206
629.1  105.74571  7.5551926
629.2  132.00672  7.5550647
629.3  112.12519  7.5549367
629.4  126.36401  7.5548088
629.5  136.80063  7.5546808
629.6  144.54859  7.5545529
629.7  133.88801  7.554425
629.8  136.20889  7.554297
629.9  132.06107  7.5541691
630  134.72119  7.5540412

