# Created by:        SpecsLab Prodigy, Version 4.84.1-r101483 
#
# XY-Serializer Export Settings:
#   Comment Prefix:           #
#   Output Meta Data:         yes
#   Energy Axis:              Kinetic Energy
#   Count Rate:               Counts per Second
#   Separate Scan Data:       no
#   Separate Channel Data:    no
#   External Channel Data:    yes
#   Transmission Function:    yes
#   Error Bar:                no
#   Operation Results:        yes
#   Time Zone Format:         UTC
#
# Group:                        L-serine pH 7 500 mM
#
# Region:                       VBM
# Spectrum ID:                  683
# Acquisition Date:             03/12/26 14:52:33 UTC
# Analysis Method:              XPS
# Analyzer:                     Phoibos
# Analyzer Lens:                LargeArea:3.5kV
# Analyzer Slit:                5:7x20\B:open
# Scan Mode:                    FixedAnalyzerTransmission
# Curves/Scan:                  1
# Values/Curve:                 251
# Dwell Time:                   0.1
# Excitation Energy:            530
# Kinetic Energy:               510
# Pass Energy:                  10
# Bias Voltage:                 220
# Detector Voltage:             1920
# Eff. Workfunction:            0
# Source:                       Monochromator
# Comment:                      

# Cycle: 0
#
# Number of Scans: 2

# Cycle: 0, Curve: 0
#
# Acquisition Date:             03/12/26 14:52:33 UTC
# ColumnLabels:                 energy counts/s transmission
#
510  98124.849  7.7123493
510.1  94871.415  7.7122136
510.2  93004.045  7.7120779
510.3  90961.203  7.7119422
510.4  89076.094  7.7118065
510.5  87312.78  7.7116708
510.6  85663.449  7.7115351
510.7  83892.139  7.7113994
510.8  82038.325  7.7112637
510.9  80101.898  7.7111281
511  77827.36  7.7109924
511.1  75536.528  7.7108567
511.2  73231.201  7.7107211
511.3  70708.328  7.7105854
511.4  69596.133  7.7104498
511.5  65718.52  7.7103141
511.6  63003.546  7.7101785
511.7  60804.389  7.7100429
511.8  58098.006  7.7099073
511.9  55656.315  7.7097716
512  53394.717  7.709636
512.1  49883.157  7.7095004
512.2  47406.612  7.7093648
512.3  45789.677  7.7092292
512.4  43302.977  7.7090936
512.5  41127.227  7.7089581
512.6  38345.256  7.7088225
512.7  36311.029  7.7086869
512.8  35441.804  7.7085514
512.9  32937.666  7.7084158
513  31329.186  7.7082802
513.1  30061.133  7.7081447
513.2  28220.031  7.7080092
513.3  26565.354  7.7078736
513.4  25558.899  7.7077381
513.5  23945.052  7.7076026
513.6  23461.855  7.707467
513.7  21779.392  7.7073315
513.8  20930.83  7.707196
513.9  20709.505  7.7070605
514  18680.991  7.706925
514.1  17645.213  7.7067895
514.2  16969.682  7.7066541
514.3  16141.839  7.7065186
514.4  15017.787  7.7063831
514.5  13958.76  7.7062477
514.6  13269.327  7.7061122
514.7  12665.54  7.7059767
514.8  11342.48  7.7058413
514.9  10897.829  7.7057059
515  10684.208  7.7055704
515.1  10344.866  7.705435
515.2  9847.4761  7.7052996
515.3  9774.1659  7.7051641
515.4  10015.575  7.7050287
515.5  10086.623  7.7048933
515.6  10154.688  7.7047579
515.7  10440.358  7.7046225
515.8  10967.387  7.7044871
515.9  11265.604  7.7043518
516  12074.802  7.7042164
516.1  12951.326  7.704081
516.2  13322.07  7.7039456
516.3  14377.14  7.7038103
516.4  15020.252  7.7036749
516.5  16015.055  7.7035396
516.6  16086.85  7.7034042
516.7  16136.925  7.7032689
516.8  16963.687  7.7031336
516.9  15798.434  7.7029983
517  15369.35  7.7028629
517.1  14250.665  7.7027276
517.2  13544.757  7.7025923
517.3  12370.038  7.702457
517.4  11553.191  7.7023217
517.5  10754.188  7.7021864
517.6  10695.263  7.7020511
517.7  10211.034  7.7019159
517.8  10120.597  7.7017806
517.9  9847.0919  7.7016453
518  9808.4099  7.7015101
518.1  9701.583  7.7013748
518.2  9519.7428  7.7012396
518.3  10077.9  7.7011043
518.4  10504.888  7.7009691
518.5  11080.167  7.7008339
518.6  11836.657  7.7006986
518.7  12459.38  7.7005634
518.8  13605.011  7.7004282
518.9  14111.179  7.700293
519  15668.22  7.7001578
519.1  16754.805  7.7000226
519.2  17951.21  7.6998874
519.3  18845.059  7.6997522
519.4  19679.067  7.6996171
519.5  19618.231  7.6994819
519.6  20284.279  7.6993467
519.7  20137.072  7.6992116
519.8  20655.75  7.6990764
519.9  20536.936  7.6989413
520  20196.206  7.6988061
520.1  19857.678  7.698671
520.2  19972.885  7.6985359
520.3  19460.67  7.6984008
520.4  18816.413  7.6982656
520.5  18092.069  7.6981305
520.6  17765.275  7.6979954
520.7  17875.063  7.6978603
520.8  17815.479  7.6977252
520.9  17593.308  7.6975901
521  18166.243  7.6974551
521.1  18078.791  7.69732
521.2  18356.044  7.6971849
521.3  19056.067  7.6970499
521.4  19388.445  7.6969148
521.5  19654.155  7.6967798
521.6  19793.226  7.6966447
521.7  19513.507  7.6965097
521.8  18954.22  7.6963746
521.9  19194.621  7.6962396
522  19376.519  7.6961046
522.1  19115.558  7.6959696
522.2  17284.243  7.6958346
522.3  15666.922  7.6956996
522.4  14656.519  7.6955646
522.5  14290.888  7.6954296
522.6  14770.46  7.6952946
522.7  14697.871  7.6951596
522.8  13766.876  7.6950246
522.9  13176.084  7.6948897
523  12898.863  7.6947547
523.1  11403.698  7.6946198
523.2  10879.065  7.6944848
523.3  9696.0102  7.6943499
523.4  8320.9332  7.6942149
523.5  7261.8348  7.69408
523.6  6454.5345  7.6939451
523.7  5648.5691  7.6938102
523.8  4874.8072  7.6936752
523.9  4009.3648  7.6935403
524  3317.7062  7.6934054
524.1  2790.3357  7.6932705
524.2  2314.0894  7.6931357
524.3  1830.1266  7.6930008
524.4  1417.353  7.6928659
524.5  1141.8372  7.692731
524.6  892.67328  7.6925962
524.7  733.088  7.6924613
524.8  650.83635  7.6923264
524.9  613.9356  7.6921916
525  539.73452  7.6920568
525.1  449.15099  7.6919219
525.2  374.57851  7.6917871
525.3  327.16867  7.6916523
525.4  236.88875  7.6915175
525.5  231.74557  7.6913827
525.6  170.24873  7.6912478
525.7  133.89233  7.6911131
525.8  119.59618  7.6909783
525.9  113.06404  7.6908435
526  117.51416  7.6907087
526.1  78.050745  7.6905739
526.2  71.272659  7.6904392
526.3  79.84124  7.6903044
526.4  55.599736  7.6901696
526.5  38.15734  7.6900349
526.6  40.859999  7.6899001
526.7  52.816926  7.6897654
526.8  52.523775  7.6896307
526.9  41.714204  7.6894959
527  45.540781  7.6893612
527.1  51.3737  7.6892265
527.2  20.135869  7.6890918
527.3  32.6899  7.6889571
527.4  40.170681  7.6888224
527.5  50.6722  7.6886877
527.6  39.2077  7.688553
527.7  22.417515  7.6884184
527.8  50.217305  7.6882837
527.9  43.293365  7.688149
528  45.978775  7.6880144
528.1  27.36059  7.6878797
528.2  21.291065  7.6877451
528.3  44.13103  7.6876104
528.4  33.544875  7.6874758
528.5  41.752795  7.6873412
528.6  25.47709  7.6872066
528.7  56.187905  7.6870719
528.8  37.48824  7.6869373
528.9  34.69869  7.6868027
529  48.45951  7.6866681
529.1  44.3573  7.6865335
529.2  36.1532  7.686399
529.3  51.35349  7.6862644
529.4  70.43921  7.6861298
529.5  74.318945  7.6859952
529.6  68.621105  7.6858607
529.7  79.539945  7.6857261
529.8  54.91097  7.6855916
529.9  62.481475  7.685457
530  63.53891  7.6853225
530.1  69.324655  7.685188
530.2  74.851465  7.6850534
530.3  80.65841  7.6849189
530.4  68.76231  7.6847844
530.5  44.271225  7.6846499
530.6  49.971135  7.6845154
530.7  58.58332  7.6843809
530.8  61.27567  7.6842464
530.9  60.72026  7.6841119
531  88.37432  7.6839775
531.1  69.735735  7.683843
531.2  74.570365  7.6837085
531.3  94.447145  7.6835741
531.4  91.076785  7.6834396
531.5  85.667069  7.6833052
531.6  97.796831  7.6831708
531.7  62.654425  7.6830363
531.8  48.842435  7.6829019
531.9  53.348944  7.6827675
532  65.702581  7.6826331
532.1  69.658684  7.6824987
532.2  65.234626  7.6823643
532.3  38.6339  7.6822299
532.4  69.252455  7.6820955
532.5  73.772905  7.6819611
532.6  64.00405  7.6818267
532.7  47.96544  7.6816923
532.8  15.646355  7.681558
532.9  28.54105  7.6814236
533  28.00015  7.6812893
533.1  28.633905  7.6811549
533.2  25.552845  7.6810206
533.3  17.90219  7.6808863
533.4  19.74851  7.6807519
533.5  16.52785  7.6806176
533.6  18.89808  7.6804833
533.7  17.69742  7.680349
533.8  0.51055  7.6802147
533.9  12.1319  7.6800804
534  6.62135  7.6799461
534.1  19.36184  7.6798118
534.2  24.22598  7.6796775
534.3  28.37412  7.6795433
534.4  12.62111  7.679409
534.5  9.40035  7.6792747
534.6  6.92275  7.6791405
534.7  10.07705  7.6790062
534.8  17.52305  7.678872
534.9  7.3576  7.6787378
535  0.0423  7.6786035

