# Created by:        SpecsLab Prodigy, Version 4.84.1-r101483 
#
# XY-Serializer Export Settings:
#   Comment Prefix:           #
#   Output Meta Data:         yes
#   Energy Axis:              Kinetic Energy
#   Count Rate:               Counts per Second
#   Separate Scan Data:       no
#   Separate Channel Data:    no
#   External Channel Data:    yes
#   Transmission Function:    yes
#   Error Bar:                no
#   Operation Results:        yes
#   Time Zone Format:         UTC
#
# Group:                        L-serine pH 7 500 mM
#
# Region:                       VBM
# Spectrum ID:                  634
# Acquisition Date:             03/12/26 07:24:35 UTC
# Analysis Method:              XPS
# Analyzer:                     Phoibos
# Analyzer Lens:                LargeArea:3.5kV
# Analyzer Slit:                5:7x20\B:open
# Scan Mode:                    FixedAnalyzerTransmission
# Curves/Scan:                  1
# Values/Curve:                 251
# Dwell Time:                   0.1
# Excitation Energy:            510
# Kinetic Energy:               490
# Pass Energy:                  10
# Bias Voltage:                 220
# Detector Voltage:             1920
# Eff. Workfunction:            0
# Source:                       Monochromator
# Comment:                      

# Cycle: 0
#
# Number of Scans: 2

# Cycle: 0, Curve: 0
#
# Acquisition Date:             03/12/26 07:24:35 UTC
# ColumnLabels:                 energy counts/s transmission
#
490  4342.7175  7.7396063
490.1  4212.5285  7.7394695
490.2  3921.5776  7.7393327
490.3  3834.1991  7.7391959
490.4  3802.028  7.739059
490.5  3647.585  7.7389222
490.6  3548.7479  7.7387854
490.7  3658.5674  7.7386486
490.8  3748.9522  7.7385119
490.9  3621.1062  7.7383751
491  3502.3721  7.7382383
491.1  3567.56  7.7381015
491.2  3333.6209  7.7379647
491.3  3185.3959  7.737828
491.4  3125.1734  7.7376912
491.5  2913.5692  7.7375545
491.6  3090.1827  7.7374177
491.7  3101.5828  7.737281
491.8  3108.2767  7.7371442
491.9  3018.323  7.7370075
492  2932.4237  7.7368708
492.1  2806.2044  7.7367341
492.2  2834.775  7.7365973
492.3  2829.0557  7.7364606
492.4  2930.5703  7.7363239
492.5  2787.3089  7.7361872
492.6  2666.8505  7.7360505
492.7  2455.8837  7.7359138
492.8  2362.241  7.7357772
492.9  2311.0883  7.7356405
493  2255.386  7.7355038
493.1  2095.9969  7.7353671
493.2  2336.7506  7.7352305
493.3  2217.3365  7.7350938
493.4  2303.4253  7.7349572
493.5  2094.1724  7.7348205
493.6  2017.5693  7.7346839
493.7  2008.3029  7.7345472
493.8  2118.653  7.7344106
493.9  2142.3894  7.734274
494  1917.6781  7.7341374
494.1  2071.529  7.7340008
494.2  2141.7001  7.7338641
494.3  2090.8893  7.7337275
494.4  2204.8736  7.7335909
494.5  2386.0897  7.7334543
494.6  2372.5407  7.7333178
494.7  2465.6174  7.7331812
494.8  2530.6941  7.7330446
494.9  2698.8826  7.732908
495  2867.7407  7.7327715
495.1  3122.5462  7.7326349
495.2  3108.3447  7.7324984
495.3  3318.6316  7.7323618
495.4  3558.9691  7.7322253
495.5  4002.4111  7.7320887
495.6  4247.1414  7.7319522
495.7  4569.2001  7.7318157
495.8  4929.1507  7.7316791
495.9  5229.8403  7.7315426
496  5909.8941  7.7314061
496.1  6162.0493  7.7312696
496.2  6704.4699  7.7311331
496.3  6834.1533  7.7309966
496.4  7620.1593  7.7308601
496.5  8106.8051  7.7307236
496.6  8415.509  7.7305872
496.7  8703.2613  7.7304507
496.8  9072.8478  7.7303142
496.9  9300.5359  7.7301778
497  9856.6541  7.7300413
497.1  10227.751  7.7299048
497.2  10224.694  7.7297684
497.3  10367.258  7.729632
497.4  10822.74  7.7294955
497.5  11277.757  7.7293591
497.6  10623.918  7.7292227
497.7  10845.001  7.7290863
497.8  11110.924  7.7289498
497.9  11402.018  7.7288134
498  10778.644  7.728677
498.1  10975.118  7.7285406
498.2  10761.065  7.7284042
498.3  10918.212  7.7282679
498.4  10554.628  7.7281315
498.5  10211.917  7.7279951
498.6  9702.3136  7.7278587
498.7  9527.76  7.7277224
498.8  9714.3107  7.727586
498.9  9173.3335  7.7274497
499  9315.6326  7.7273133
499.1  9086.9026  7.727177
499.2  9424.0537  7.7270406
499.3  9694.6845  7.7269043
499.4  10613.419  7.726768
499.5  11321.191  7.7266317
499.6  12626.267  7.7264953
499.7  14678.807  7.726359
499.8  16234.31  7.7262227
499.9  17873.269  7.7260864
500  19721.022  7.7259501
500.1  21778.457  7.7258139
500.2  22643.53  7.7256776
500.3  23958.424  7.7255413
500.4  25301.79  7.725405
500.5  25371.211  7.7252688
500.6  26079.677  7.7251325
500.7  25922.361  7.7249963
500.8  25351.503  7.72486
500.9  24978.088  7.7247238
501  23935.589  7.7245875
501.1  23429.297  7.7244513
501.2  23154.335  7.7243151
501.3  22902.486  7.7241789
501.4  22687.134  7.7240426
501.5  23015.299  7.7239064
501.6  22917.997  7.7237702
501.7  22681.594  7.723634
501.8  23112.328  7.7234978
501.9  24078.963  7.7233617
502  24340.083  7.7232255
502.1  25276.009  7.7230893
502.2  26661.812  7.7229531
502.3  28022.618  7.722817
502.4  27283.539  7.7226808
502.5  26052.971  7.7225447
502.6  25120.561  7.7224085
502.7  23782.317  7.7222724
502.8  21605.664  7.7221362
502.9  20199.158  7.7220001
503  19182.04  7.721864
503.1  18282.85  7.7217279
503.2  18331.693  7.7215918
503.3  19306.467  7.7214556
503.4  20052.983  7.7213195
503.5  20855.384  7.7211834
503.6  21658.349  7.7210474
503.7  22645.131  7.7209113
503.8  22805.335  7.7207752
503.9  22972.873  7.7206391
504  23150.569  7.720503
504.1  22079.002  7.720367
504.2  21157.048  7.7202309
504.3  19823.003  7.7200949
504.4  18996.304  7.7199588
504.5  17243.833  7.7198228
504.6  15058.563  7.7196868
504.7  13107.881  7.7195507
504.8  11258.427  7.7194147
504.9  9187.5342  7.7192787
505  7580.2334  7.7191427
505.1  6008.7659  7.7190067
505.2  4869.8532  7.7188707
505.3  3857.3498  7.7187347
505.4  2846.1294  7.7185987
505.5  2304.9237  7.7184627
505.6  1711.7361  7.7183267
505.7  1411.2021  7.7181908
505.8  1211.3943  7.7180548
505.9  1165.8188  7.7179188
506  980.39504  7.7177829
506.1  832.38291  7.7176469
506.2  672.03681  7.717511
506.3  556.74621  7.717375
506.4  522.6378  7.7172391
506.5  400.03829  7.7171032
506.6  341.88517  7.7169673
506.7  244.08386  7.7168313
506.8  198.73435  7.7166954
506.9  204.2953  7.7165595
507  169.17995  7.7164236
507.1  107.02895  7.7162877
507.2  77.0436  7.7161519
507.3  124.30597  7.716016
507.4  106.51095  7.7158801
507.5  96.45082  7.7157442
507.6  94.42847  7.7156084
507.7  107.18902  7.7154725
507.8  110.94777  7.7153367
507.9  75.82148  7.7152008
508  92.32774  7.715065
508.1  65.955235  7.7149291
508.2  59.873838  7.7147933
508.3  77.910322  7.7146575
508.4  37.092665  7.7145217
508.5  58.507595  7.7143858
508.6  61.10278  7.71425
508.7  78.8447  7.7141142
508.8  34.532465  7.7139784
508.9  53.680685  7.7138426
509  44.3537  7.7137069
509.1  51.88545  7.7135711
509.2  62.310195  7.7134353
509.3  43.025255  7.7132995
509.4  59.83965  7.7131638
509.5  58.07518  7.713028
509.6  32.90602  7.7128923
509.7  44.36766  7.7127565
509.8  42.00664  7.7126208
509.9  39.516  7.7124851
510  47.778265  7.7123493
510.1  56.379554  7.7122136
510.2  33.117526  7.7120779
510.3  50.206005  7.7119422
510.4  49.318265  7.7118065
510.5  36.467185  7.7116708
510.6  21.61755  7.7115351
510.7  31.272645  7.7113994
510.8  39.374445  7.7112637
510.9  40.705555  7.7111281
511  23.81732  7.7109924
511.1  33.06832  7.7108567
511.2  37.178765  7.7107211
511.3  47.013165  7.7105854
511.4  18.683735  7.7104498
511.5  23.630845  7.7103141
511.6  18.718455  7.7101785
511.7  16.2808  7.7100429
511.8  26.971595  7.7099073
511.9  24.730655  7.7097716
512  31.15765  7.709636
512.1  35.128225  7.7095004
512.2  34.31  7.7093648
512.3  22.748675  7.7092292
512.4  12.09849  7.7090936
512.5  15.97811  7.7089581
512.6  6.668115  7.7088225
512.7  12.051085  7.7086869
512.8  15.472645  7.7085514
512.9  12.255105  7.7084158
513  16.03375  7.7082802
513.1  11.1494  7.7081447
513.2  11.88045  7.7080092
513.3  21.409  7.7078736
513.4  18.9315  7.7077381
513.5  17.434  7.7076026
513.6  15.775395  7.707467
513.7  23.590919  7.7073315
513.8  21.238426  7.707196
513.9  11.56951  7.7070605
514  22.8257  7.706925
514.1  8.723738  7.7067895
514.2  30.218117  7.7066541
514.3  34.78701  7.7065186
514.4  16.322385  7.7063831
514.5  14.787795  7.7062477
514.6  14.096955  7.7061122
514.7  13.51135  7.7059767
514.8  12.2596  7.7058413
514.9  10.259019  7.7057059
515  9.872381  7.7055704

