# Created by:        SpecsLab Prodigy, Version 4.84.1-r101483 
#
# XY-Serializer Export Settings:
#   Comment Prefix:           #
#   Output Meta Data:         yes
#   Energy Axis:              Kinetic Energy
#   Count Rate:               Counts per Second
#   Separate Scan Data:       no
#   Separate Channel Data:    no
#   External Channel Data:    yes
#   Transmission Function:    yes
#   Error Bar:                no
#   Operation Results:        yes
#   Time Zone Format:         UTC
#
# Group:                        L-serine pH 7 500 mM
#
# Region:                       VBM
# Spectrum ID:                  693
# Acquisition Date:             03/12/26 15:38:56 UTC
# Analysis Method:              XPS
# Analyzer:                     Phoibos
# Analyzer Lens:                LargeArea:3.5kV
# Analyzer Slit:                5:7x20\B:open
# Scan Mode:                    FixedAnalyzerTransmission
# Curves/Scan:                  1
# Values/Curve:                 251
# Dwell Time:                   0.1
# Excitation Energy:            610
# Kinetic Energy:               590
# Pass Energy:                  10
# Bias Voltage:                 220
# Detector Voltage:             1920
# Eff. Workfunction:            0
# Source:                       Monochromator
# Comment:                      

# Cycle: 0
#
# Number of Scans: 2

# Cycle: 0, Curve: 0
#
# Acquisition Date:             03/12/26 15:38:56 UTC
# ColumnLabels:                 energy counts/s transmission
#
590  236.76808  7.6057521
590.1  288.89948  7.6056214
590.2  274.08296  7.6054908
590.3  252.04548  7.6053602
590.4  223.60622  7.6052296
590.5  273.26492  7.605099
590.6  315.13261  7.6049683
590.7  222.94868  7.6048378
590.8  232.67464  7.6047072
590.9  255.93836  7.6045766
591  176.44644  7.604446
591.1  196.84772  7.6043154
591.2  249.6091  7.6041849
591.3  243.90668  7.6040543
591.4  214.2102  7.6039238
591.5  257.02667  7.6037932
591.6  222.66349  7.6036627
591.7  192.7447  7.6035322
591.8  206.19179  7.6034016
591.9  176.90585  7.6032711
592  184.46409  7.6031406
592.1  178.57473  7.6030101
592.2  165.42374  7.6028796
592.3  109.97929  7.6027491
592.4  123.29323  7.6026186
592.5  138.8735  7.6024882
592.6  119.99277  7.6023577
592.7  102.52504  7.6022272
592.8  148.09733  7.6020968
592.9  149.16755  7.6019663
593  133.89788  7.6018359
593.1  128.70385  7.6017055
593.2  127.27046  7.601575
593.3  154.47614  7.6014446
593.4  131.72687  7.6013142
593.5  105.25536  7.6011838
593.6  164.84885  7.6010534
593.7  172.87136  7.600923
593.8  151.79127  7.6007926
593.9  161.83949  7.6006622
594  176.03076  7.6005319
594.1  215.9692  7.6004015
594.2  203.37223  7.6002711
594.3  227.00499  7.6001408
594.4  305.7805  7.6000104
594.5  293.43715  7.5998801
594.6  301.15085  7.5997498
594.7  276.17201  7.5996194
594.8  343.74705  7.5994891
594.9  355.68203  7.5993588
595  392.69787  7.5992285
595.1  386.57272  7.5990982
595.2  383.60239  7.5989679
595.3  469.92806  7.5988376
595.4  595.77145  7.5987074
595.5  654.65778  7.5985771
595.6  616.58803  7.5984468
595.7  594.54649  7.5983166
595.8  664.6319  7.5981863
595.9  684.04273  7.5980561
596  775.50081  7.5979258
596.1  831.91799  7.5977956
596.2  833.27664  7.5976654
596.3  988.6895  7.5975352
596.4  905.52758  7.5974049
596.5  853.91005  7.5972747
596.6  853.56594  7.5971445
596.7  826.34679  7.5970144
596.8  854.12431  7.5968842
596.9  875.12482  7.596754
597  911.54495  7.5966238
597.1  882.54302  7.5964937
597.2  944.95951  7.5963635
597.3  883.20853  7.5962334
597.4  951.69062  7.5961032
597.5  944.8854  7.5959731
597.6  857.37645  7.595843
597.7  772.41715  7.5957128
597.8  771.08249  7.5955827
597.9  746.59609  7.5954526
598  642.03481  7.5953225
598.1  615.25086  7.5951924
598.2  639.83404  7.5950623
598.3  642.25516  7.5949322
598.4  563.50565  7.5948022
598.5  591.74728  7.5946721
598.6  665.37434  7.594542
598.7  682.43994  7.594412
598.8  753.51029  7.5942819
598.9  935.92194  7.5941519
599  1114.938  7.5940219
599.1  1265.0303  7.5938918
599.2  1255.5052  7.5937618
599.3  1470.3533  7.5936318
599.4  1604.22  7.5935018
599.5  1889.9188  7.5933718
599.6  1912.6803  7.5932418
599.7  1936.3085  7.5931118
599.8  1879.1229  7.5929818
599.9  1721.0961  7.5928519
600  1809.2556  7.5927219
600.1  1759.9187  7.5925919
600.2  1726.4673  7.592462
600.3  1634.4511  7.592332
600.4  1676.0399  7.5922021
600.5  1467.0507  7.5920722
600.6  1559.8741  7.5919422
600.7  1702.0543  7.5918123
600.8  1612.3127  7.5916824
600.9  1518.8386  7.5915525
601  1526.1074  7.5914226
601.1  1599.8133  7.5912927
601.2  1618.8594  7.5911628
601.3  1695.1029  7.591033
601.4  1779.3695  7.5909031
601.5  2042.4971  7.5907732
601.6  2136.8562  7.5906434
601.7  2262.4368  7.5905135
601.8  2321.1824  7.5903837
601.9  1870.7617  7.5902538
602  1541.3349  7.590124
602.1  1283.9373  7.5899942
602.2  1243.0444  7.5898644
602.3  1379.2868  7.5897346
602.4  1530.7572  7.5896048
602.5  1381.5311  7.589475
602.6  1641.742  7.5893452
602.7  1707.4133  7.5892154
602.8  1941.9622  7.5890856
602.9  1861.1598  7.5889559
603  1849.5963  7.5888261
603.1  1822.0707  7.5886963
603.2  1854.8412  7.5885666
603.3  1901.8658  7.5884368
603.4  1602.2827  7.5883071
603.5  1638.802  7.5881774
603.6  1429.8381  7.5880477
603.7  1334.2857  7.587918
603.8  1240.9222  7.5877882
603.9  1018.5718  7.5876585
604  732.4135  7.5875289
604.1  687.22891  7.5873992
604.2  512.1566  7.5872695
604.3  356.39884  7.5871398
604.4  284.81169  7.5870101
604.5  244.82004  7.5868805
604.6  141.84423  7.5867508
604.7  134.40414  7.5866212
604.8  124.06724  7.5864916
604.9  108.01063  7.5863619
605  149.14434  7.5862323
605.1  108.50999  7.5861027
605.2  79.08738  7.5859731
605.3  64.85545  7.5858435
605.4  45.9781  7.5857139
605.5  56.660625  7.5855843
605.6  46.131075  7.5854547
605.7  40.29451  7.5853251
605.8  36.662255  7.5851955
605.9  25.263535  7.585066
606  5.30205  7.5849364
606.1  11.82985  7.5848069
606.2  19.395915  7.5846773
606.3  12.829535  7.5845478
606.4  11.45595  7.5844183
606.5  23.969975  7.5842887
606.6  24.40417  7.5841592
606.7  10.259655  7.5840297
606.8  14.9956  7.5839002
606.9  14.4041  7.5837707
607  10.723519  7.5836412
607.1  15.72795  7.5835118
607.2  16.497481  7.5833823
607.3  9.6082  7.5832528
607.4  5.60855  7.5831233
607.5  8.76225  7.5829939
607.6  7.004219  7.5828644
607.7  9.233531  7.582735
607.8  7.983745  7.5826056
607.9  19.535505  7.5824761
608  12.39615  7.5823467
608.1  3.974465  7.5822173
608.2  11.067835  7.5820879
608.3  0.0423  7.5819585
608.4  0.72795  7.5818291
608.5  13.880875  7.5816997
608.6  7.527545  7.5815703
608.7  7.00873  7.581441
608.8  11.54055  7.5813116
608.9  13.28505  7.5811823
609  14.27205  7.5810529
609.1  3.251  7.5809236
609.2  12.47695  7.5807942
609.3  6.6296  7.5806649
609.4  4.3997  7.5805356
609.5  0  7.5804062
609.6  1.3661  7.5802769
609.7  5.85115  7.5801476
609.8  12.48515  7.5800183
609.9  4.357395  7.579889
610  0.940205  7.5797598
610.1  0.425919  7.5796305
610.2  11.705981  7.5795012
610.3  3.08105  7.579372
610.4  4.78705  7.5792427
610.5  4.52355  7.5791134
610.6  12.264  7.5789842
610.7  13.03805  7.578855
610.8  2.1364  7.5787257
610.9  8.63385  7.5785965
611  6.9234  7.5784673
611.1  2.48075  7.5783381
611.2  0  7.5782089
611.3  9.94495  7.5780797
611.4  10.05505  7.5779505
611.5  6.0685  7.5778213
611.6  3.9315  7.5776922
611.7  3.15745  7.577563
611.8  7.911085  7.5774338
611.9  10.71898  7.5773047
612  8.212485  7.5771755
612.1  5.4214  7.5770464
612.2  9.5318  7.5769173
612.3  1.67265  7.5767881
612.4  8.2042  7.576659
612.5  9.0175  7.5765299
612.6  8.36525  7.5764008
612.7  11.45965  7.5762717
612.8  6.24294  7.5761426
612.9  5.29756  7.5760135
613  11.1064  7.5758845
613.1  5.81702  7.5757554
613.2  5.34057  7.5756263
613.3  21.02626  7.5754973
613.4  16.66295  7.5753682
613.5  4.83385  7.5752392
613.6  12.47765  7.5751101
613.7  15.16925  7.5749811
613.8  2.3531  7.5748521
613.9  4.187425  7.5747231
614  8.412675  7.5745941
614.1  10.4727  7.5744651
614.2  9.57855  7.5743361
614.3  11.62135  7.5742071
614.4  2.86367  7.5740781
614.5  2.86363  7.5739491
614.6  4.059795  7.5738201
614.7  17.766255  7.5736912
614.8  12.9617  7.5735622
614.9  8.3697  7.5734333
615  2.5705  7.5733043

