# Created by:        SpecsLab Prodigy, Version 4.84.1-r101483 
#
# XY-Serializer Export Settings:
#   Comment Prefix:           #
#   Output Meta Data:         yes
#   Energy Axis:              Kinetic Energy
#   Count Rate:               Counts per Second
#   Separate Scan Data:       no
#   Separate Channel Data:    no
#   External Channel Data:    yes
#   Transmission Function:    yes
#   Error Bar:                no
#   Operation Results:        yes
#   Time Zone Format:         UTC
#
# Group:                        L-serine pH 7 500 mM
#
# Region:                       O 1s 120
# Spectrum ID:                  677
# Acquisition Date:             03/12/26 14:11:08 UTC
# Analysis Method:              XPS
# Analyzer:                     Phoibos
# Analyzer Lens:                LargeArea:3.5kV
# Analyzer Slit:                5:7x20\B:open
# Scan Mode:                    FixedAnalyzerTransmission
# Curves/Scan:                  1
# Values/Curve:                 151
# Dwell Time:                   0.1
# Excitation Energy:            650
# Kinetic Energy:               110
# Pass Energy:                  10
# Bias Voltage:                 220
# Detector Voltage:             1920
# Eff. Workfunction:            0
# Source:                       Monochromator
# Comment:                      

# Cycle: 0
#
# Number of Scans: 6

# Cycle: 0, Curve: 0
#
# Acquisition Date:             03/12/26 14:11:08 UTC
# ColumnLabels:                 energy counts/s transmission
#
110  61.663497  8.149621
110.1  85.448858  8.1497062
110.2  73.832845  8.149791
110.3  71.17915  8.1498754
110.4  62.397872  8.1499594
110.5  65.272013  8.1500429
110.6  65.7439  8.1501259
110.7  62.360697  8.1502086
110.8  68.958138  8.1502908
110.9  45.666705  8.1503726
111  52.898886  8.1504539
111.1  58.249836  8.1505348
111.2  46.218657  8.1506153
111.3  60.21028  8.1506954
111.4  55.081077  8.150775
111.5  58.76001  8.1508542
111.6  58.273545  8.150933
111.7  57.109805  8.1510114
111.8  53.250338  8.1510893
111.9  53.519372  8.1511669
112  48.128991  8.151244
112.1  60.997923  8.1513207
112.2  53.111122  8.1513969
112.3  56.309755  8.1514728
112.4  52.300305  8.1515482
112.5  60.303757  8.1516233
112.6  57.61845  8.1516979
112.7  50.798708  8.1517721
112.8  57.327208  8.1518458
112.9  58.348495  8.1519192
113  82.069616  8.1519922
113.1  71.52299  8.1520647
113.2  77.115038  8.1521369
113.3  68.944211  8.1522086
113.4  66.024189  8.1522799
113.5  83.869013  8.1523509
113.6  87.880795  8.1524214
113.7  89.299335  8.1524915
113.8  86.699158  8.1525612
113.9  83.338978  8.1526305
114  99.553932  8.1526995
114.1  103.05888  8.152768
114.2  109.81611  8.1528361
114.3  111.76356  8.1529038
114.4  118.79017  8.1529711
114.5  151.22821  8.153038
114.6  187.2077  8.1531046
114.7  231.8325  8.1531707
114.8  235.92837  8.1532364
114.9  357.29376  8.1533018
115  601.38487  8.1533667
115.1  892.85691  8.1534313
115.2  1342.8843  8.1534954
115.3  2021.3096  8.1535592
115.4  2946.6212  8.1536226
115.5  3758.2454  8.1536856
115.6  4295.1464  8.1537482
115.7  3830.7632  8.1538105
115.8  2798.4789  8.1538723
115.9  1610.9287  8.1539338
116  805.87288  8.1539948
116.1  391.85814  8.1540555
116.2  306.76213  8.1541159
116.3  268.05434  8.1541758
116.4  258.76585  8.1542353
116.5  237.23009  8.1542945
116.6  236.87654  8.1543533
116.7  250.78508  8.1544117
116.8  245.22503  8.1544698
116.9  273.92377  8.1545274
117  261.52095  8.1545847
117.1  260.68904  8.1546416
117.2  266.86401  8.1546982
117.3  255.88986  8.1547544
117.4  258.0743  8.1548102
117.5  286.73032  8.1548656
117.6  226.95118  8.1549206
117.7  217.55345  8.1549753
117.8  205.11108  8.1550296
117.9  198.84792  8.1550836
118  153.44772  8.1551372
118.1  136.06556  8.1551904
118.2  134.28603  8.1552433
118.3  111.80756  8.1552958
118.4  99.604233  8.1553479
118.5  94.679128  8.1553996
118.6  81.098806  8.155451
118.7  87.662287  8.1555021
118.8  73.585705  8.1555528
118.9  69.357659  8.1556031
119  68.42136  8.155653
119.1  69.421925  8.1557027
119.2  57.390498  8.1557519
119.3  57.70233  8.1558008
119.4  58.747084  8.1558493
119.5  64.220325  8.1558975
119.6  58.073253  8.1559453
119.7  50.763973  8.1559928
119.8  56.536412  8.1560399
119.9  51.678473  8.1560867
120  53.305928  8.1561331
120.1  51.803153  8.1561792
120.2  59.001425  8.1562249
120.3  56.201415  8.1562703
120.4  54.503603  8.1563153
120.5  48.238143  8.15636
120.6  52.713883  8.1564043
120.7  49.866037  8.1564483
120.8  39.939062  8.1564919
120.9  54.178053  8.1565352
121  58.733494  8.1565781
121.1  77.513648  8.1566207
121.2  62.933844  8.156663
121.3  49.673785  8.1567049
121.4  48.088648  8.1567465
121.5  47.98491  8.1567877
121.6  57.713882  8.1568286
121.7  40.517255  8.1568692
121.8  52.401987  8.1569094
121.9  58.666777  8.1569493
122  44.23604  8.1569889
122.1  31.793273  8.1570281
122.2  48.420404  8.157067
122.3  47.813589  8.1571055
122.4  42.626677  8.1571437
122.5  56.572881  8.1571816
122.6  64.559668  8.1572192
122.7  50.489535  8.1572564
122.8  47.247532  8.1572933
122.9  41.958748  8.1573298
123  49.089435  8.1573661
123.1  54.566471  8.157402
123.2  45.098922  8.1574375
123.3  40.756183  8.1574728
123.4  42.754552  8.1575077
123.5  44.27071  8.1575423
123.6  55.446987  8.1575766
123.7  47.714005  8.1576105
123.8  53.314315  8.1576442
123.9  52.004684  8.1576775
124  56.697875  8.1577104
124.1  52.436426  8.1577431
124.2  54.790442  8.1577754
124.3  64.977002  8.1578074
124.4  39.116122  8.1578391
124.5  40.362027  8.1578705
124.6  56.194417  8.1579016
124.7  57.77806  8.1579323
124.8  70.424917  8.1579627
124.9  50.052279  8.1579929
125  46.21841  8.1580226

