# Created by:        SpecsLab Prodigy, Version 4.84.1-r101483 
#
# XY-Serializer Export Settings:
#   Comment Prefix:           #
#   Output Meta Data:         yes
#   Energy Axis:              Kinetic Energy
#   Count Rate:               Counts per Second
#   Separate Scan Data:       no
#   Separate Channel Data:    no
#   External Channel Data:    yes
#   Transmission Function:    yes
#   Error Bar:                no
#   Operation Results:        yes
#   Time Zone Format:         UTC
#
# Group:                        L-serine pH 7 500 mM
#
# Region:                       VBM
# Spectrum ID:                  625
# Acquisition Date:             03/12/26 06:25:27 UTC
# Analysis Method:              XPS
# Analyzer:                     Phoibos
# Analyzer Lens:                LargeArea:3.5kV
# Analyzer Slit:                5:7x20\B:open
# Scan Mode:                    FixedAnalyzerTransmission
# Curves/Scan:                  1
# Values/Curve:                 251
# Dwell Time:                   0.1
# Excitation Energy:            890
# Kinetic Energy:               870
# Pass Energy:                  10
# Bias Voltage:                 220
# Detector Voltage:             1920
# Eff. Workfunction:            0
# Source:                       Monochromator
# Comment:                      

# Cycle: 0
#
# Number of Scans: 2

# Cycle: 0, Curve: 0
#
# Acquisition Date:             03/12/26 06:25:27 UTC
# ColumnLabels:                 energy counts/s transmission
#
870  51.761045  7.2667013
870.1  41.910715  7.2665895
870.2  40.26875  7.2664776
870.3  44.06279  7.2663658
870.4  23.11891  7.266254
870.5  29.264485  7.2661422
870.6  40.642715  7.2660303
870.7  42.744145  7.2659185
870.8  22.736055  7.2658068
870.9  19.272  7.265695
871  24.74995  7.2655832
871.1  26.484725  7.2654714
871.2  33.80389  7.2653596
871.3  35.51566  7.2652479
871.4  22.352445  7.2651361
871.5  23.85128  7.2650244
871.6  33.970715  7.2649126
871.7  20.301335  7.2648009
871.8  19.225995  7.2646891
871.9  27.310774  7.2645774
872  28.880231  7.2644657
872.1  33.596675  7.264354
872.2  34.573425  7.2642423
872.3  20.000715  7.2641306
872.4  19.484285  7.2640189
872.5  14.79155  7.2639072
872.6  19.902619  7.2637955
872.7  38.464695  7.2636838
872.8  50.803636  7.2635721
872.9  42.872465  7.2634605
873  36.88943  7.2633488
873.1  23.114405  7.2632372
873.2  24.74025  7.2631255
873.3  34.868615  7.2630139
873.4  28.391335  7.2629022
873.5  33.915019  7.2627906
873.6  27.923076  7.262679
873.7  14.651155  7.2625674
873.8  20.77406  7.2624558
873.9  9.10214  7.2623442
874  6.32305  7.2622326
874.1  7.18315  7.262121
874.2  26.04837  7.2620094
874.3  67.897575  7.2618978
874.4  54.548965  7.2617862
874.5  54.792265  7.2616747
874.6  39.819725  7.2615631
874.7  42.98823  7.2614516
874.8  53.255405  7.26134
874.9  76.426665  7.2612285
875  75.534619  7.2611169
875.1  61.136681  7.2610054
875.2  76.855884  7.2608939
875.3  69.442816  7.2607824
875.4  70.71005  7.2606709
875.5  83.08025  7.2605594
875.6  64.827088  7.2604479
875.7  99.157177  7.2603364
875.8  63.93073  7.2602249
875.9  54.523519  7.2601134
876  95.107336  7.2600019
876.1  95.82914  7.2598905
876.2  112.53316  7.259779
876.3  97.552676  7.2596676
876.4  121.96209  7.2595561
876.5  78.30159  7.2594447
876.6  89.549345  7.2593332
876.7  105.0075  7.2592218
876.8  91.289815  7.2591104
876.9  96.532959  7.258999
877  141.43936  7.2588875
877.1  164.61337  7.2587761
877.2  127.06609  7.2586647
877.3  123.23904  7.2585534
877.4  118.65107  7.258442
877.5  125.52376  7.2583306
877.6  129.60216  7.2582192
877.7  99.864475  7.2581078
877.8  99.029399  7.2579965
877.9  81.523456  7.2578851
878  95.548295  7.2577738
878.1  96.099095  7.2576624
878.2  86.997435  7.2575511
878.3  139.51318  7.2574398
878.4  83.2104  7.2573284
878.5  60.108415  7.2572171
878.6  102.75365  7.2571058
878.7  122.26076  7.2569945
878.8  140.97877  7.2568832
878.9  184.4397  7.2567719
879  179.74926  7.2566606
879.1  218.44361  7.2565493
879.2  219.54647  7.2564381
879.3  284.53142  7.2563268
879.4  234.35572  7.2562155
879.5  241.12844  7.2561043
879.6  270.4771  7.255993
879.7  273.5235  7.2558818
879.8  297.69781  7.2557706
879.9  246.82489  7.2556593
880  219.12734  7.2555481
880.1  212.80307  7.2554369
880.2  230.67343  7.2553257
880.3  267.84745  7.2552145
880.4  243.42152  7.2551033
880.5  250.19509  7.2549921
880.6  285.53577  7.2548809
880.7  240.36276  7.2547697
880.8  262.98478  7.2546585
880.9  236.12487  7.2545473
881  262.55786  7.2544362
881.1  278.07415  7.254325
881.2  307.45481  7.2542139
881.3  252.22865  7.2541027
881.4  250.98283  7.2539916
881.5  297.81404  7.2538805
881.6  291.15606  7.2537693
881.7  266.24196  7.2536582
881.8  216.55324  7.2535471
881.9  191.74888  7.253436
882  193.23326  7.2533249
882.1  187.03839  7.2532138
882.2  163.70884  7.2531027
882.3  186.58059  7.2529916
882.4  151.93341  7.2528805
882.5  171.02449  7.2527695
882.6  183.96235  7.2526584
882.7  213.41591  7.2525473
882.8  212.69732  7.2524363
882.9  173.11665  7.2523252
883  271.84661  7.2522142
883.1  259.39675  7.2521032
883.2  260.80056  7.2519921
883.3  244.17227  7.2518811
883.4  234.36923  7.2517701
883.5  189.64479  7.2516591
883.6  157.06807  7.2515481
883.7  147.46348  7.2514371
883.8  131.4423  7.2513261
883.9  108.7613  7.2512151
884  102.53206  7.2511041
884.1  77.35254  7.2509932
884.2  70.34879  7.2508822
884.3  59.82488  7.2507712
884.4  53.897375  7.2506603
884.5  21.506415  7.2505493
884.6  25.987699  7.2504384
884.7  21.322436  7.2503275
884.8  20.077045  7.2502165
884.9  29.3233  7.2501056
885  24.18747  7.2499947
885.1  14.497685  7.2498838
885.2  16.28145  7.2497729
885.3  22.8503  7.249662
885.4  13.4677  7.2495511
885.5  6.37055  7.2494402
885.6  5.51055  7.2493293
885.7  22.60905  7.2492185
885.8  10.00375  7.2491076
885.9  5.97875  7.2489967
886  13.5871  7.2488859
886.1  8.59604  7.248775
886.2  7.43397  7.2486642
886.3  12.77894  7.2485533
886.4  8.07595  7.2484425
886.5  1.110845  7.2483317
886.6  13.195955  7.2482209
886.7  12.5275  7.2481101
886.8  12.5661  7.2479992
886.9  8.633865  7.2478884
887  4.617085  7.2477777
887.1  5.0764  7.2476669
887.2  18.256175  7.2475561
887.3  9.016075  7.2474453
887.4  0.085319  7.2473345
887.5  4.914681  7.2472238
887.6  2.3493  7.247113
887.7  7.6507  7.2470023
887.8  1.75345  7.2468915
887.9  6.40845  7.2467808
888  1.8381  7.2466701
888.1  11.792025  7.2465593
888.2  9.40414  7.2464486
888.3  4.78705  7.2463379
888.4  12.77453  7.2462272
888.5  3.459505  7.2461165
888.6  7.868069  7.2460058
888.7  4.914681  7.2458951
888.8  5.93645  7.2457844
888.9  4.06355  7.2456737
889  0  7.2455631
889.1  0.3406  7.2454524
889.2  11.8343  7.2453417
889.3  13.50625  7.2452311
889.4  8.19975  7.2451204
889.5  6.1191  7.2450098
889.6  0  7.2448992
889.7  0  7.2447885
889.8  4.9109  7.2446779
889.9  8.6339  7.2445673
890  6.75345  7.2444567
890.1  12.18315  7.2443461
890.2  2.5186  7.2442355
890.3  3.24275  7.2441249
890.4  9.4086  7.2440143
890.5  11.52782  7.2439037
890.6  15.26353  7.2437932
890.7  4.44715  7.2436826
890.8  8.11889  7.243572
890.9  17.35376  7.2434615
891  6.4463  7.2433509
891.1  7.225465  7.2432404
891.2  1.965735  7.2431298
891.3  2.00874  7.2430193
891.4  10.983205  7.2429088
891.5  6.706005  7.2427983
891.6  2.99194  7.2426878
891.7  17.00806  7.2425773
891.8  3.2087  7.2424668
891.9  2.09335  7.2423563
892  8.37035  7.2422458
892.1  1.62965  7.2421353
892.2  3.498  7.2420248
892.3  6.502  7.2419144
892.4  3.80455  7.2418039
892.5  7.983  7.2416934
892.6  15.7792  7.241583
892.7  15.548375  7.2414725
892.8  3.506275  7.2413621
892.9  3.3786  7.2412517
893  7.2217  7.2411412
893.1  3.2465  7.2410308
893.2  8.2087  7.2409204
893.3  1.7913  7.24081
893.4  12.2262  7.2406996
893.5  8.416445  7.2405892
893.6  8.846855  7.2404788
893.7  6.621375  7.2403684
893.8  10.255265  7.240258
893.9  10.90236  7.2401477
894  2.2633  7.2400373
894.1  4.140645  7.239927
894.2  8.89362  7.2398166
894.3  5.893435  7.2397063
894.4  3.2042  7.2395959
894.5  2.8681  7.2394856
894.6  1.1064  7.2393753
894.7  12.056209  7.2392649
894.8  13.841641  7.2391546
894.9  7.183175  7.2390443
895  8.247235  7.238934

