# Created by:        SpecsLab Prodigy, Version 4.84.1-r101483 
#
# XY-Serializer Export Settings:
#   Comment Prefix:           #
#   Output Meta Data:         yes
#   Energy Axis:              Kinetic Energy
#   Count Rate:               Counts per Second
#   Separate Scan Data:       no
#   Separate Channel Data:    no
#   External Channel Data:    yes
#   Transmission Function:    yes
#   Error Bar:                no
#   Operation Results:        yes
#   Time Zone Format:         UTC
#
# Group:                        L-serine pH 7 500 mM
#
# Region:                       O 1s ref
# Spectrum ID:                  614
# Acquisition Date:             03/12/26 05:31:30 UTC
# Analysis Method:              XPS
# Analyzer:                     Phoibos
# Analyzer Lens:                LargeArea:3.5kV
# Analyzer Slit:                5:7x20\B:open
# Scan Mode:                    FixedAnalyzerTransmission
# Curves/Scan:                  1
# Values/Curve:                 151
# Dwell Time:                   0.1
# Excitation Energy:            900
# Kinetic Energy:               360
# Pass Energy:                  20
# Bias Voltage:                 220
# Detector Voltage:             1920
# Eff. Workfunction:            0
# Source:                       Monochromator
# Comment:                      

# Cycle: 0
#
# Number of Scans: 1

# Cycle: 0, Curve: 0
#
# Acquisition Date:             03/12/26 05:31:30 UTC
# ColumnLabels:                 energy counts/s transmission
#
360  10626.43  16.44968
360.1  10249.16  16.449603
360.2  10275.593  16.449526
360.3  10086.96  16.449449
360.4  9917.1746  16.449371
360.5  9854.7496  16.449294
360.6  9702.1504  16.449217
360.7  9401.4576  16.449139
360.8  9502.9908  16.449062
360.9  8563.2476  16.448985
361  8677.3164  16.448907
361.1  9245.987  16.448829
361.2  9248.6383  16.448752
361.3  8993.9328  16.448674
361.4  9059.0479  16.448596
361.5  8723.0005  16.448518
361.6  8650.013  16.44844
361.7  8683.8841  16.448363
361.8  8550.6011  16.448285
361.9  9174.049  16.448206
362  8999.5154  16.448128
362.1  8797.4094  16.44805
362.2  8696.604  16.447972
362.3  8828.5219  16.447894
362.4  8774.0018  16.447815
362.5  8993.9907  16.447737
362.6  9818.0385  16.447658
362.7  9404.7126  16.44758
362.8  9526.8351  16.447501
362.9  9837.375  16.447423
363  9606.4421  16.447344
363.1  9637.7409  16.447265
363.2  9735.7836  16.447187
363.3  9839.634  16.447108
363.4  9980.6184  16.447029
363.5  10406.469  16.44695
363.6  9936.3609  16.446871
363.7  10049.423  16.446792
363.8  10723.852  16.446713
363.9  11415.259  16.446634
364  11997.856  16.446554
364.1  12102.636  16.446475
364.2  12675.535  16.446396
364.3  14494.01  16.446316
364.4  17308.241  16.446237
364.5  20115.507  16.446158
364.6  24199.692  16.446078
364.7  30168.287  16.445998
364.8  37405.547  16.445919
364.9  45180.18  16.445839
365  55304.628  16.445759
365.1  65630.817  16.445679
365.2  73506.231  16.4456
365.3  77323.452  16.44552
365.4  75809.797  16.44544
365.5  72033.943  16.44536
365.6  64900.184  16.44528
365.7  56977.021  16.445199
365.8  52531.774  16.445119
365.9  49803.416  16.445039
366  49980.254  16.444959
366.1  53622.719  16.444878
366.2  60306.696  16.444798
366.3  69603.379  16.444718
366.4  80104.243  16.444637
366.5  93353.007  16.444556
366.6  105276.92  16.444476
366.7  117548.73  16.444395
366.8  130937.26  16.444314
366.9  142881.7  16.444234
367  154323.62  16.444153
367.1  161024.02  16.444072
367.2  167524.81  16.443991
367.3  172139.35  16.44391
367.4  169075.08  16.443829
367.5  165562.27  16.443748
367.6  160125.36  16.443667
367.7  151523.15  16.443586
367.8  139117.67  16.443504
367.9  124303.49  16.443423
368  112357.76  16.443342
368.1  95066.743  16.44326
368.2  81142.529  16.443179
368.3  68868.93  16.443097
368.4  56775.724  16.443016
368.5  48686.993  16.442934
368.6  39858.278  16.442852
368.7  33565.582  16.442771
368.8  28504.706  16.442689
368.9  24819.935  16.442607
369  21123.145  16.442525
369.1  18820.709  16.442443
369.2  17370.872  16.442361
369.3  15670.527  16.442279
369.4  14612.747  16.442197
369.5  13594.197  16.442115
369.6  12973.243  16.442033
369.7  12676.31  16.44195
369.8  11807.5  16.441868
369.9  11447.831  16.441786
370  10766.705  16.441703
370.1  11035.221  16.441621
370.2  10007.313  16.441538
370.3  9844.5618  16.441456
370.4  10109.769  16.441373
370.5  9515.0626  16.441291
370.6  9408.2053  16.441208
370.7  9147.882  16.441125
370.8  9385.3694  16.441042
370.9  9516.3452  16.440959
371  9330.884  16.440876
371.1  8878.8453  16.440793
371.2  9187.8648  16.44071
371.3  9250.7443  16.440627
371.4  8977.0627  16.440544
371.5  8779.5259  16.440461
371.6  8944.6142  16.440378
371.7  9165.1912  16.440295
371.8  9265.1147  16.440211
371.9  8936.7552  16.440128
372  8779.2719  16.440044
372.1  8812.0564  16.439961
372.2  8777.718  16.439877
372.3  8741.0695  16.439794
372.4  8612.5134  16.43971
372.5  8712.1753  16.439626
372.6  9238.4476  16.439543
372.7  8577.4865  16.439459
372.8  8872.6234  16.439375
372.9  8640.0148  16.439291
373  8713.4242  16.439207
373.1  8742.0669  16.439123
373.2  8711.9603  16.439039
373.3  8439.2006  16.438955
373.4  8744.8354  16.438871
373.5  8409.4693  16.438787
373.6  8156.1579  16.438703
373.7  8561.2902  16.438618
373.8  8505.8485  16.438534
373.9  8093.8844  16.438449
374  8088.0762  16.438365
374.1  8735.5207  16.438281
374.2  8832.9724  16.438196
374.3  8308.3021  16.438111
374.4  8352.256  16.438027
374.5  8173.358  16.437942
374.6  7988.2382  16.437857
374.7  8223.5659  16.437772
374.8  7650.5042  16.437688
374.9  8365.8305  16.437603
375  8483.7341  16.437518

