# Created by:        SpecsLab Prodigy, Version 4.84.1-r101483 
#
# XY-Serializer Export Settings:
#   Comment Prefix:           #
#   Output Meta Data:         yes
#   Energy Axis:              Kinetic Energy
#   Count Rate:               Counts per Second
#   Separate Scan Data:       no
#   Separate Channel Data:    no
#   External Channel Data:    yes
#   Transmission Function:    yes
#   Error Bar:                no
#   Operation Results:        yes
#   Time Zone Format:         UTC
#
# Group:                        L-serine pH 7 500 mM
#
# Region:                       O 1s 800
# Spectrum ID:                  608
# Acquisition Date:             03/12/26 04:51:09 UTC
# Analysis Method:              XPS
# Analyzer:                     Phoibos
# Analyzer Lens:                LargeArea:3.5kV
# Analyzer Slit:                5:7x20\B:open
# Scan Mode:                    FixedAnalyzerTransmission
# Curves/Scan:                  1
# Values/Curve:                 151
# Dwell Time:                   0.1
# Excitation Energy:            1330
# Kinetic Energy:               790
# Pass Energy:                  10
# Bias Voltage:                 220
# Detector Voltage:             1920
# Eff. Workfunction:            0
# Source:                       Monochromator
# Comment:                      5th

# Cycle: 0
#
# Number of Scans: 4

# Cycle: 0, Curve: 0
#
# Acquisition Date:             03/12/26 04:51:09 UTC
# ColumnLabels:                 energy counts/s transmission
#
790  42.004627  7.3582089
790.1  36.946808  7.3580919
790.2  31.46532  7.3579749
790.3  22.851232  7.357858
790.4  26.231943  7.357741
790.5  24.925735  7.3576241
790.6  33.076513  7.3575071
790.7  23.89335  7.3573902
790.8  18.76375  7.3572733
790.9  19.970275  7.3571564
791  24.046835  7.3570394
791.1  25.936812  7.3569225
791.2  30.150653  7.3568056
791.3  24.551062  7.3566887
791.4  18.46581  7.3565719
791.5  18.289533  7.356455
791.6  23.689122  7.3563381
791.7  32.540757  7.3562212
791.8  33.529315  7.3561044
791.9  15.34916  7.3559875
792  14.142527  7.3558707
792.1  23.199791  7.3557538
792.2  25.501192  7.355637
792.3  30.032683  7.3555202
792.4  29.92835  7.3554033
792.5  27.059273  7.3552865
792.6  23.723322  7.3551697
792.7  29.892288  7.3550529
792.8  27.227042  7.3549361
792.9  23.051302  7.3548193
793  19.79119  7.3547026
793.1  25.868475  7.3545858
793.2  32.95343  7.354469
793.3  36.579063  7.3543523
793.4  35.535428  7.3542355
793.5  22.332307  7.3541188
793.6  38.92545  7.354002
793.7  28.378637  7.3538853
793.8  59.933743  7.3537685
793.9  61.305222  7.3536518
794  97.010547  7.3535351
794.1  130.9631  7.3534184
794.2  142.59158  7.3533017
794.3  188.91829  7.353185
794.4  231.9383  7.3530683
794.5  320.68006  7.3529516
794.6  351.13593  7.352835
794.7  411.44407  7.3527183
794.8  459.84886  7.3526016
794.9  470.71376  7.352485
795  449.91564  7.3523683
795.1  449.85402  7.3522517
795.2  392.28601  7.352135
795.3  339.54958  7.3520184
795.4  326.52084  7.3519018
795.5  340.07523  7.3517852
795.6  354.81047  7.3516686
795.7  367.93996  7.351552
795.8  366.26686  7.3514354
795.9  391.2503  7.3513188
796  538.15387  7.3512022
796.1  660.29418  7.3510856
796.2  722.20034  7.350969
796.3  850.53625  7.3508525
796.4  956.70434  7.3507359
796.5  1088.994  7.3506194
796.6  1172.1562  7.3505028
796.7  1253.2055  7.3503863
796.8  1308.2454  7.3502697
796.9  1467.1054  7.3501532
797  1535.4362  7.3500367
797.1  1416.527  7.3499202
797.2  1435.3247  7.3498037
797.3  1394.8683  7.3496872
797.4  1373.725  7.3495707
797.5  1213.0244  7.3494542
797.6  1224.6841  7.3493377
797.7  1002.7909  7.3492213
797.8  823.8092  7.3491048
797.9  716.27756  7.3489883
798  613.50856  7.3488719
798.1  473.23989  7.3487554
798.2  394.69573  7.348639
798.3  369.21905  7.3485226
798.4  280.71418  7.3484061
798.5  261.13004  7.3482897
798.6  201.51216  7.3481733
798.7  129.14126  7.3480569
798.8  116.99646  7.3479405
798.9  119.22974  7.3478241
799  127.2485  7.3477077
799.1  95.96524  7.3475913
799.2  68.112255  7.347475
799.3  68.674635  7.3473586
799.4  49.086643  7.3472422
799.5  52.002347  7.3471259
799.6  49.41466  7.3470095
799.7  28.999787  7.3468932
799.8  38.262025  7.3467769
799.9  41.630247  7.3466605
800  37.966841  7.3465442
800.1  27.859865  7.3464279
800.2  25.98701  7.3463116
800.3  28.743247  7.3461953
800.4  22.628843  7.346079
800.5  16.68965  7.3459627
800.6  11.774275  7.3458464
800.7  18.0465  7.3457301
800.8  22.909198  7.3456139
800.9  15.027187  7.3454976
801  16.234016  7.3453814
801.1  14.040897  7.3452651
801.2  17.6529  7.3451489
801.3  12.689178  7.3450326
801.4  16.725622  7.3449164
801.5  20.300153  7.3448002
801.6  15.840092  7.344684
801.7  14.466407  7.3445677
801.8  10.38035  7.3444515
801.9  7.48296  7.3443353
802  13.52399  7.3442192
802.1  18.951095  7.344103
802.2  18.37603  7.3439868
802.3  12.970433  7.3438706
802.4  14.082865  7.3437545
802.5  12.753377  7.3436383
802.6  15.21481  7.3435221
802.7  17.991635  7.343406
802.8  15.319057  7.3432899
802.9  11.946473  7.3431737
803  9.872375  7.3430576
803.1  16.14934  7.3429415
803.2  12.974295  7.3428254
803.3  13.844566  7.3427093
803.4  13.90845  7.3425932
803.5  6.49975  7.3424771
803.6  5.363975  7.342361
803.7  5.487125  7.3422449
803.8  9.59817  7.3421288
803.9  5.5146625  7.3420128
804  9.2067175  7.3418967
804.1  6.3913725  7.3417807
804.2  7.7975775  7.3416646
804.3  11.511147  7.3415486
804.4  9.6442375  7.3414325
804.5  7.94706  7.3413165
804.6  8.41903  7.3412005
804.7  7.4105825  7.3410845
804.8  7.5063425  7.3409685
804.9  8.330325  7.3408525
805  14.976225  7.3407365

