# Created by:        SpecsLab Prodigy, Version 4.84.1-r101483 
#
# XY-Serializer Export Settings:
#   Comment Prefix:           #
#   Output Meta Data:         yes
#   Energy Axis:              Kinetic Energy
#   Count Rate:               Counts per Second
#   Separate Scan Data:       no
#   Separate Channel Data:    no
#   External Channel Data:    yes
#   Transmission Function:    yes
#   Error Bar:                no
#   Operation Results:        yes
#   Time Zone Format:         UTC
#
# Group:                        L-serine pH 7 500 mM
#
# Region:                       O 1s 250
# Spectrum ID:                  661
# Acquisition Date:             03/12/26 10:23:03 UTC
# Analysis Method:              XPS
# Analyzer:                     Phoibos
# Analyzer Lens:                LargeArea:3.5kV
# Analyzer Slit:                5:7x20\B:open
# Scan Mode:                    FixedAnalyzerTransmission
# Curves/Scan:                  1
# Values/Curve:                 151
# Dwell Time:                   0.1
# Excitation Energy:            780
# Kinetic Energy:               240
# Pass Energy:                  10
# Bias Voltage:                 220
# Detector Voltage:             1920
# Eff. Workfunction:            0
# Source:                       Monochromator
# Comment:                      

# Cycle: 0
#
# Number of Scans: 4

# Cycle: 0, Curve: 0
#
# Acquisition Date:             03/12/26 10:23:03 UTC
# ColumnLabels:                 energy counts/s transmission
#
240  4828.9961  8.0797322
240.1  4703.9656  8.0796135
240.2  4610.7775  8.0794948
240.3  4716.6118  8.079376
240.4  4602.6102  8.0792572
240.5  4290.8641  8.0791384
240.6  4371.0852  8.0790195
240.7  4234.4656  8.0789005
240.8  4341.5619  8.0787816
240.9  4023.3967  8.0786626
241  3963.811  8.0785435
241.1  3975.6685  8.0784244
241.2  3983.022  8.0783053
241.3  3972.4406  8.0781861
241.4  3877.4338  8.0780669
241.5  3709.9562  8.0779476
241.6  3723.5349  8.0778283
241.7  3978.3096  8.077709
241.8  3914.2014  8.0775896
241.9  3880.353  8.0774702
242  3842.4309  8.0773507
242.1  3888.681  8.0772312
242.2  3946.595  8.0771116
242.3  3952.15  8.0769921
242.4  3893.4386  8.0768724
242.5  3926.5858  8.0767528
242.6  3967.8627  8.0766331
242.7  4026.9489  8.0765133
242.8  3900.7991  8.0763935
242.9  3897.2769  8.0762737
243  4030.731  8.0761538
243.1  4022.0862  8.0760339
243.2  4167.9038  8.075914
243.3  4157.9119  8.075794
243.4  4161.7641  8.075674
243.5  4152.41  8.0755539
243.6  4319.1259  8.0754338
243.7  4400.6144  8.0753137
243.8  4420.9904  8.0751935
243.9  4645.0091  8.0750733
244  4690.2157  8.074953
244.1  4670.352  8.0748327
244.2  4834.0111  8.0747124
244.3  5295.8272  8.074592
244.4  5441.0048  8.0744716
244.5  5887.3739  8.0743511
244.6  6610.5154  8.0742306
244.7  7316.8735  8.0741101
244.8  8816.0489  8.0739895
244.9  11306.278  8.0738689
245  15162.961  8.0737483
245.1  20710.164  8.0736276
245.2  27516.453  8.0735069
245.3  35267.303  8.0733861
245.4  42105.546  8.0732653
245.5  46300.303  8.0731445
245.6  47007.068  8.0730236
245.7  42976.224  8.0729027
245.8  36695.575  8.0727817
245.9  30048.017  8.0726607
246  25047.919  8.0725397
246.1  23292.499  8.0724186
246.2  24117.035  8.0722975
246.3  27006.59  8.0721764
246.4  30676.654  8.0720552
246.5  36091.095  8.071934
246.6  41678.508  8.0718127
246.7  47779.458  8.0716914
246.8  53930.54  8.0715701
246.9  60308.126  8.0714487
247  66640.663  8.0713273
247.1  72249.589  8.0712059
247.2  77162.063  8.0710844
247.3  80595.361  8.0709629
247.4  82270.561  8.0708413
247.5  82449.788  8.0707197
247.6  80627.056  8.0705981
247.7  77952.062  8.0704764
247.8  74113.861  8.0703547
247.9  69325.404  8.070233
248  62354.409  8.0701112
248.1  54805.378  8.0699894
248.2  47793.386  8.0698675
248.3  41053.559  8.0697457
248.4  34924.65  8.0696237
248.5  29194.878  8.0695018
248.6  24352.925  8.0693798
248.7  20226.002  8.0692577
248.8  16709.467  8.0691357
248.9  14349.611  8.0690136
249  12307.365  8.0688914
249.1  10724.843  8.0687693
249.2  9338.6598  8.068647
249.3  8403.8514  8.0685248
249.4  8036.7412  8.0684025
249.5  7396.5457  8.0682802
249.6  6843.7527  8.0681578
249.7  6483.6929  8.0680354
249.8  6119.5779  8.067913
249.9  5778.843  8.0677906
250  5545.9525  8.0676681
250.1  5416.7561  8.0675455
250.2  5225.2921  8.067423
250.3  5052.3789  8.0673003
250.4  4834.873  8.0671777
250.5  4901.3218  8.067055
250.6  4940.7395  8.0669323
250.7  4880.1075  8.0668096
250.8  4635.1883  8.0666868
250.9  4672.5174  8.066564
251  4501.3075  8.0664411
251.1  4540.4546  8.0663182
251.2  4542.3673  8.0661953
251.3  4377.9906  8.0660724
251.4  4371.5487  8.0659494
251.5  4457.7207  8.0658264
251.6  4404.2529  8.0657033
251.7  4355.246  8.0655802
251.8  4323.6087  8.0654571
251.9  4462.5554  8.0653339
252  4430.4052  8.0652107
252.1  4241.474  8.0650875
252.2  4237.1085  8.0649642
252.3  4418.58  8.0648409
252.4  4338.2935  8.0647176
252.5  4419.0285  8.0645942
252.6  4421.4993  8.0644708
252.7  4337.89  8.0643474
252.8  4298.0662  8.0642239
252.9  4270.0964  8.0641004
253  4447.654  8.0639769
253.1  4462.9207  8.0638533
253.2  4404.2678  8.0637297
253.3  4371.3133  8.063606
253.4  4303.1425  8.0634824
253.5  4334.2128  8.0633587
253.6  4265.8296  8.0632349
253.7  4244.0513  8.0631112
253.8  4231.0811  8.0629873
253.9  4248.5429  8.0628635
254  4233.932  8.0627396
254.1  4372.2905  8.0626157
254.2  4367.4524  8.0624918
254.3  4255.0709  8.0623678
254.4  4228.2252  8.0622438
254.5  4437.4836  8.0621198
254.6  4400.3482  8.0619957
254.7  4307.8955  8.0618716
254.8  4367.3165  8.0617474
254.9  4325.807  8.0616233
255  4556.0846  8.0614991

