# Created by:        SpecsLab Prodigy, Version 4.84.1-r101483 
#
# XY-Serializer Export Settings:
#   Comment Prefix:           #
#   Output Meta Data:         yes
#   Energy Axis:              Kinetic Energy
#   Count Rate:               Counts per Second
#   Separate Scan Data:       no
#   Separate Channel Data:    no
#   External Channel Data:    yes
#   Transmission Function:    yes
#   Error Bar:                no
#   Operation Results:        yes
#   Time Zone Format:         UTC
#
# Group:                        L-serine pH 7 500 mM
#
# Region:                       VBM
# Spectrum ID:                  609
# Acquisition Date:             03/12/26 04:51:48 UTC
# Analysis Method:              XPS
# Analyzer:                     Phoibos
# Analyzer Lens:                LargeArea:3.5kV
# Analyzer Slit:                5:7x20\B:open
# Scan Mode:                    FixedAnalyzerTransmission
# Curves/Scan:                  1
# Values/Curve:                 251
# Dwell Time:                   0.1
# Excitation Energy:            1330
# Kinetic Energy:               1310
# Pass Energy:                  10
# Bias Voltage:                 220
# Detector Voltage:             1920
# Eff. Workfunction:            0
# Source:                       Monochromator
# Comment:                      

# Cycle: 0
#
# Number of Scans: 1

# Cycle: 0, Curve: 0
#
# Acquisition Date:             03/12/26 04:51:48 UTC
# ColumnLabels:                 energy counts/s transmission
#
1310  3.9404  6.3246404
1310.1  6.0596  6.3241576
1310.2  6.1532  6.3236749
1310.3  7.7872  6.3231923
1310.4  0  6.3227098
1310.5  0  6.3222273
1310.6  0  6.3217449
1310.7  0  6.3212626
1310.8  0  6.3207804
1310.9  0  6.3202982
1311  0  6.3198161
1311.1  6.8343  6.3193341
1311.2  3.1657  6.3188521
1311.3  0  6.3183702
1311.4  1.1917  6.3178884
1311.5  8.8083  6.3174067
1311.6  11.6176  6.3169251
1311.7  8.3824  6.3164435
1311.8  2.2128  6.315962
1311.9  7.7872  6.3154805
1312  0  6.3149992
1312.1  0  6.3145179
1312.2  0  6.3140367
1312.3  0  6.3135555
1312.4  15.2182  6.3130744
1312.5  4.7818  6.3125934
1312.6  1.4559  6.3121125
1312.7  8.5441  6.3116317
1312.8  15.72863  6.3111509
1312.9  5.47197  6.3106702
1313  8.7994  6.3101896
1313.1  3.2517  6.309709
1313.2  10.2463  6.3092285
1313.3  6.502  6.3087481
1313.4  4.6986  6.3082678
1313.5  20.8505  6.3077875
1313.6  4.4509  6.3073073
1313.7  0  6.3068272
1313.8  0  6.3063472
1313.9  0  6.3058672
1314  0  6.3053873
1314.1  0  6.3049075
1314.2  0  6.3044277
1314.3  0  6.303948
1314.4  8.28128  6.3034684
1314.5  31.96647  6.3029889
1314.6  16.58655  6.3025094
1314.7  3.1657  6.30203
1314.8  0  6.3015507
1314.9  8.11959  6.3010715
1315  22.39231  6.3005923
1315.1  20.3399  6.3001132
1315.2  12.3999  6.2996342
1315.3  6.7483  6.2991552
1315.4  0  6.2986764
1315.5  4.27274  6.2981976
1315.6  5.72726  6.2977188
1315.7  2.477  6.2972402
1315.8  7.523  6.2967616
1315.9  4.0085  6.2962831
1316  5.9915  6.2958046
1316.1  0  6.2953263
1316.2  2.9875  6.294848
1316.3  7.0125  6.2943697
1316.4  3.2517  6.2938916
1316.5  6.7483  6.2934135
1316.6  0  6.2929355
1316.7  0  6.2924576
1316.8  6.5791  6.2919797
1316.9  8.7236  6.2915019
1317  4.6973  6.2910242
1317.1  0  6.2905466
1317.2  0  6.290069
1317.3  0  6.2895915
1317.4  19.64359  6.2891141
1317.5  20.35641  6.2886367
1317.6  0  6.2881595
1317.7  7.3538  6.2876822
1317.8  2.6462  6.2872051
1317.9  0  6.286728
1318  0  6.2862511
1318.1  0.9364  6.2857741
1318.2  18.4684  6.2852973
1318.3  0.5952  6.2848205
1318.4  0  6.2843438
1318.5  2.2128  6.2838672
1318.6  7.7872  6.2833906
1318.7  0  6.2829142
1318.8  0  6.2824377
1318.9  11.62649  6.2819614
1319  15.46311  6.2814851
1319.1  10.7658  6.2810089
1319.2  21.3712  6.2805328
1319.3  20.4335  6.2800568
1319.4  11.7111  6.2795808
1319.5  35.1914  6.2791049
1319.6  13.4374  6.2786291
1319.7  7.3538  6.2781533
1319.8  2.6462  6.2776776
1319.9  0  6.277202
1320  0  6.2767264
1320.1  5.3027  6.276251
1320.2  4.6973  6.2757756
1320.3  0  6.2753002
1320.4  0  6.274825
1320.5  5.8133  6.2743498
1320.6  4.1867  6.2738747
1320.7  1.1917  6.2733996
1320.8  10.7658  6.2729247
1320.9  16.9279  6.2724498
1321  1.1146  6.2719749
1321.1  0  6.2715002
1321.2  17.77965  6.2710255
1321.3  10.5952  6.2705509
1321.4  3.58265  6.2700764
1321.5  8.0425  6.2696019
1321.6  0  6.2691275
1321.7  13.9239  6.2686532
1321.8  19.1496  6.2681789
1321.9  25.30135  6.2677047
1322  1.62515  6.2672306
1322.1  12.6297  6.2667566
1322.2  14.9794  6.2662826
1322.3  4.61259  6.2658087
1322.4  7.77831  6.2653349
1322.5  0  6.2648612
1322.6  4.7833  6.2643875
1322.7  11.2763  6.2639139
1322.8  13.081  6.2634404
1322.9  0.8594  6.2629669
1323  6.3238  6.2624935
1323.1  9.3959  6.2620202
1323.2  18.29778  6.2615469
1323.3  5.98252  6.2610738
1323.4  7.0896  6.2606006
1323.5  2.9104  6.2601276
1323.6  0  6.2596547
1323.7  0  6.2591818
1323.8  0  6.2587089
1323.9  0  6.2582362
1324  1.7112  6.2577635
1324.1  8.2888  6.2572909
1324.2  2.22169  6.2568184
1324.3  16.40841  6.2563459
1324.4  1.3699  6.2558735
1324.5  0  6.2554012
1324.6  0  6.254929
1324.7  0  6.2544568
1324.8  9.4048  6.2539847
1324.9  4.61268  6.2535126
1325  5.98252  6.2530407
1325.1  1.7112  6.2525688
1325.2  8.2888  6.252097
1325.3  1.96643  6.2516252
1325.4  8.03357  6.2511535
1325.5  0  6.2506819
1325.6  0  6.2502104
1325.7  0  6.2497389
1325.8  0  6.2492675
1325.9  8.6301  6.2487962
1326  1.3699  6.248325
1326.1  0  6.2478538
1326.2  7.6001  6.2473827
1326.3  2.3999  6.2469116
1326.4  0  6.2464407
1326.5  4.528  6.2459698
1326.6  9.2253  6.2454989
1326.7  6.6726  6.2450282
1326.8  9.5741  6.2445575
1326.9  4.7833  6.2440869
1327  8.97  6.2436164
1327.1  6.2467  6.2431459
1327.2  0  6.2426755
1327.3  17.7707  6.2422052
1327.4  2.2293  6.2417349
1327.5  0  6.2412647
1327.6  2.7322  6.2407946
1327.7  7.2678  6.2403245
1327.8  0  6.2398546
1327.9  0  6.2393847
1328  0  6.2389148
1328.1  0  6.2384451
1328.2  1.447  6.2379754
1328.3  8.553  6.2375058
1328.4  0  6.2370362
1328.5  6.06853  6.2365667
1328.6  14.77437  6.2360973
1328.7  9.1571  6.235628
1328.8  0  6.2351587
1328.9  0  6.2346895
1329  0  6.2342204
1329.1  6.06853  6.2337513
1329.2  6.14427  6.2332823
1329.3  13.8468  6.2328134
1329.4  13.25169  6.2323446
1329.5  10.68871  6.2318758
1329.6  0  6.2314071
1329.7  0  6.2309385
1329.8  0  6.2304699
1329.9  9.4048  6.2300014
1330  4.0932  6.229533
1330.1  6.502  6.2290647
1330.2  0  6.2285964
1330.3  0  6.2281282
1330.4  0  6.22766
1330.5  0.9364  6.227192
1330.6  9.0636  6.226724
1330.7  7.6001  6.226256
1330.8  16.3149  6.2257882
1330.9  6.085  6.2253204
1331  0  6.2248527
1331.1  0  6.224385
1331.2  0  6.2239174
1331.3  0  6.2234499
1331.4  0  6.2229825
1331.5  0  6.2225151
1331.6  0  6.2220478
1331.7  0  6.2215806
1331.8  7.8643  6.2211135
1331.9  6.3995  6.2206464
1332  11.2942  6.2201794
1332.1  4.442  6.2197124
1332.2  0  6.2192455
1332.3  0  6.2187787
1332.4  0  6.218312
1332.5  5.3027  6.2178453
1332.6  4.6973  6.2173787
1332.7  0  6.2169122
1332.8  0  6.2164458
1332.9  0  6.2159794
1333  0  6.2155131
1333.1  0  6.2150468
1333.2  0  6.2145806
1333.3  0  6.2141145
1333.4  0  6.2136485
1333.5  7.3538  6.2131825
1333.6  2.6462  6.2127166
1333.7  0  6.2122508
1333.8  0  6.211785
1333.9  0  6.2113194
1334  5.8133  6.2108537
1334.1  4.1867  6.2103882
1334.2  0  6.2099227
1334.3  0  6.2094573
1334.4  0  6.208992
1334.5  0  6.2085267
1334.6  8.37485  6.2080615
1334.7  1.62515  6.2075964
1334.8  0  6.2071313
1334.9  0  6.2066663
1335  0  6.2062014

