# Created by:        SpecsLab Prodigy, Version 4.84.1-r101483 
#
# XY-Serializer Export Settings:
#   Comment Prefix:           #
#   Output Meta Data:         yes
#   Energy Axis:              Kinetic Energy
#   Count Rate:               Counts per Second
#   Separate Scan Data:       no
#   Separate Channel Data:    no
#   External Channel Data:    yes
#   Transmission Function:    yes
#   Error Bar:                no
#   Operation Results:        yes
#   Time Zone Format:         UTC
#
# Group:                        L-serine pH 7 500 mM
#
# Region:                       O 1s ref
# Spectrum ID:                  635
# Acquisition Date:             03/12/26 07:26:46 UTC
# Analysis Method:              XPS
# Analyzer:                     Phoibos
# Analyzer Lens:                LargeArea:3.5kV
# Analyzer Slit:                5:7x20\B:open
# Scan Mode:                    FixedAnalyzerTransmission
# Curves/Scan:                  1
# Values/Curve:                 151
# Dwell Time:                   0.1
# Excitation Energy:            900
# Kinetic Energy:               360
# Pass Energy:                  20
# Bias Voltage:                 220
# Detector Voltage:             1920
# Eff. Workfunction:            0
# Source:                       Monochromator
# Comment:                      

# Cycle: 0
#
# Number of Scans: 1

# Cycle: 0, Curve: 0
#
# Acquisition Date:             03/12/26 07:26:46 UTC
# ColumnLabels:                 energy counts/s transmission
#
360  10774.242  16.44968
360.1  10788.766  16.449603
360.2  10990.292  16.449526
360.3  10475.767  16.449449
360.4  10442.3  16.449371
360.5  10026.743  16.449294
360.6  10127.568  16.449217
360.7  9505.4368  16.449139
360.8  9688.8047  16.449062
360.9  9423.0436  16.448985
361  8795.8591  16.448907
361.1  9887.5145  16.448829
361.2  9399.2111  16.448752
361.3  9417.9829  16.448674
361.4  9806.0951  16.448596
361.5  9312.0811  16.448518
361.6  9397.378  16.44844
361.7  9513.799  16.448363
361.8  9298.0528  16.448285
361.9  9058.8171  16.448206
362  9393.1026  16.448128
362.1  9761.4527  16.44805
362.2  9228.0378  16.447972
362.3  9192.7041  16.447894
362.4  9707.3015  16.447815
362.5  9632.3482  16.447737
362.6  9586.6471  16.447658
362.7  9569.7042  16.44758
362.8  9739.2581  16.447501
362.9  9929.5281  16.447423
363  9692.0108  16.447344
363.1  10066.503  16.447265
363.2  10148.611  16.447187
363.3  10092.022  16.447108
363.4  10243.604  16.447029
363.5  10610.124  16.44695
363.6  10647.807  16.446871
363.7  11531.742  16.446792
363.8  11598.514  16.446713
363.9  11375.967  16.446634
364  11770.58  16.446554
364.1  12224.193  16.446475
364.2  12784.985  16.446396
364.3  13259.149  16.446316
364.4  15012.097  16.446237
364.5  16381.635  16.446158
364.6  19255.324  16.446078
364.7  23658.197  16.445998
364.8  30620.087  16.445919
364.9  39772.475  16.445839
365  51064.259  16.445759
365.1  62919.604  16.445679
365.2  74702.843  16.4456
365.3  84358.831  16.44552
365.4  86900.296  16.44544
365.5  85001.345  16.44536
365.6  78164.071  16.44528
365.7  67833.619  16.445199
365.8  59753.417  16.445119
365.9  56121.031  16.445039
366  56071.906  16.444959
366.1  59190.191  16.444878
366.2  67280.963  16.444798
366.3  77825.4  16.444718
366.4  87903.314  16.444637
366.5  100466.62  16.444556
366.6  114185.35  16.444476
366.7  125714.08  16.444395
366.8  138725.14  16.444314
366.9  152688.14  16.444234
367  161557.16  16.444153
367.1  171565.99  16.444072
367.2  175379.7  16.443991
367.3  177318.41  16.44391
367.4  176141.15  16.443829
367.5  171550.65  16.443748
367.6  162345.35  16.443667
367.7  152117.88  16.443586
367.8  138922.37  16.443504
367.9  124042.23  16.443423
368  108267.04  16.443342
368.1  94875.691  16.44326
368.2  79611.407  16.443179
368.3  67115.458  16.443097
368.4  56062.236  16.443016
368.5  46130.558  16.442934
368.6  39279.339  16.442852
368.7  32137.887  16.442771
368.8  27562.935  16.442689
368.9  24864.598  16.442607
369  21377.038  16.442525
369.1  18651.929  16.442443
369.2  17716.339  16.442361
369.3  16145.574  16.442279
369.4  15391.223  16.442197
369.5  14653.126  16.442115
369.6  13609.564  16.442033
369.7  12244.516  16.44195
369.8  12497.22  16.441868
369.9  11629.623  16.441786
370  11115.481  16.441703
370.1  10888.552  16.441621
370.2  10524.599  16.441538
370.3  10059.15  16.441456
370.4  10090.213  16.441373
370.5  9860.9034  16.441291
370.6  10093.19  16.441208
370.7  9555.5118  16.441125
370.8  9898.3437  16.441042
370.9  10332.419  16.440959
371  9957.0502  16.440876
371.1  9783.5636  16.440793
371.2  9428.8604  16.44071
371.3  9176.1963  16.440627
371.4  9320.0648  16.440544
371.5  9739.241  16.440461
371.6  9465.2619  16.440378
371.7  8952.0049  16.440295
371.8  9091.6936  16.440211
371.9  9218.5068  16.440128
372  9310.6102  16.440044
372.1  8976.0716  16.439961
372.2  9244.2055  16.439877
372.3  9179.9067  16.439794
372.4  9322.0458  16.43971
372.5  9119.2361  16.439626
372.6  9183.8703  16.439543
372.7  8535.899  16.439459
372.8  8894.215  16.439375
372.9  8920.286  16.439291
373  8865.5631  16.439207
373.1  8994.7932  16.439123
373.2  9073.9612  16.439039
373.3  8989.7828  16.438955
373.4  9235.3574  16.438871
373.5  8787.8703  16.438787
373.6  8695.4496  16.438703
373.7  8402.7463  16.438618
373.8  8687.1788  16.438534
373.9  8944.856  16.438449
374  8537.6433  16.438365
374.1  8912.511  16.438281
374.2  9129.2742  16.438196
374.3  9109.0539  16.438111
374.4  8917.1743  16.438027
374.5  8887.3158  16.437942
374.6  8623.5507  16.437857
374.7  9100.0106  16.437772
374.8  8830.8483  16.437688
374.9  8634.6495  16.437603
375  8444.4729  16.437518

