# Created by:        SpecsLab Prodigy, Version 4.84.1-r101483 
#
# XY-Serializer Export Settings:
#   Comment Prefix:           #
#   Output Meta Data:         yes
#   Energy Axis:              Kinetic Energy
#   Count Rate:               Counts per Second
#   Separate Scan Data:       no
#   Separate Channel Data:    no
#   External Channel Data:    yes
#   Transmission Function:    yes
#   Error Bar:                no
#   Operation Results:        yes
#   Time Zone Format:         UTC
#
# Group:                        L-serine pH 7 500 mM
#
# Region:                       VBM
# Spectrum ID:                  662
# Acquisition Date:             03/12/26 10:24:20 UTC
# Analysis Method:              XPS
# Analyzer:                     Phoibos
# Analyzer Lens:                LargeArea:3.5kV
# Analyzer Slit:                5:7x20\B:open
# Scan Mode:                    FixedAnalyzerTransmission
# Curves/Scan:                  1
# Values/Curve:                 251
# Dwell Time:                   0.1
# Excitation Energy:            780
# Kinetic Energy:               760
# Pass Energy:                  10
# Bias Voltage:                 220
# Detector Voltage:             1920
# Eff. Workfunction:            0
# Source:                       Monochromator
# Comment:                      

# Cycle: 0
#
# Number of Scans: 2

# Cycle: 0, Curve: 0
#
# Acquisition Date:             03/12/26 10:24:20 UTC
# ColumnLabels:                 energy counts/s transmission
#
760  93.621135  7.3936003
760.1  102.55719  7.3934813
760.2  98.153049  7.3933623
760.3  92.440746  7.3932434
760.4  107.65029  7.3931244
760.5  123.40697  7.3930055
760.6  95.317735  7.3928865
760.7  84.9622  7.3927676
760.8  80.417715  7.3926487
760.9  143.00504  7.3925298
761  117.7606  7.3924109
761.1  99.489515  7.392292
761.2  93.647355  7.3921731
761.3  92.807855  7.3920542
761.4  93.51151  7.3919353
761.5  104.15338  7.3918164
761.6  107.35295  7.3916976
761.7  86.81217  7.3915787
761.8  105.8296  7.3914598
761.9  77.38658  7.391341
762  68.689505  7.3912221
762.1  68.54034  7.3911033
762.2  65.012785  7.3909845
762.3  66.093595  7.3908657
762.4  62.842265  7.3907468
762.5  40.067435  7.390628
762.6  60.76272  7.3905092
762.7  96.716415  7.3903904
762.8  85.64042  7.3902716
762.9  75.971295  7.3901529
763  71.59932  7.3900341
763.1  65.207725  7.3899153
763.2  43.472859  7.3897966
763.3  55.322761  7.3896778
763.4  60.788854  7.3895591
763.5  98.366606  7.3894403
763.6  78.38745  7.3893216
763.7  72.38584  7.3892029
763.8  85.672939  7.3890841
763.9  77.27676  7.3889654
764  89.008581  7.3888467
764.1  96.03364  7.388728
764.2  58.47216  7.3886093
764.3  80.191985  7.3884906
764.4  85.055878  7.3883719
764.5  85.616526  7.3882533
764.6  125.34117  7.3881346
764.7  122.22034  7.3880159
764.8  99.036024  7.3878973
764.9  137.88741  7.3877786
765  114.70963  7.38766
765.1  173.32155  7.3875414
765.2  146.96647  7.3874227
765.3  172.76244  7.3873041
765.4  188.58544  7.3871855
765.5  262.39916  7.3870669
765.6  222.91626  7.3869483
765.7  274.60412  7.3868297
765.8  279.60557  7.3867111
765.9  285.37435  7.3865925
766  327.25727  7.386474
766.1  381.34729  7.3863554
766.2  309.36012  7.3862368
766.3  326.11591  7.3861183
766.4  300.98342  7.3859997
766.5  378.86574  7.3858812
766.6  359.81438  7.3857627
766.7  452.48359  7.3856441
766.8  386.88646  7.3855256
766.9  392.49232  7.3854071
767  401.21972  7.3852886
767.1  410.00356  7.3851701
767.2  412.74436  7.3850516
767.3  416.54196  7.3849331
767.4  381.80197  7.3848146
767.5  429.65517  7.3846962
767.6  416.56495  7.3845777
767.7  364.3354  7.3844592
767.8  332.68398  7.3843408
767.9  331.91315  7.3842223
768  288.87127  7.3841039
768.1  300.7126  7.3839855
768.2  235.73085  7.383867
768.3  337.43279  7.3837486
768.4  333.68331  7.3836302
768.5  253.28514  7.3835118
768.6  341.52072  7.3833934
768.7  326.94455  7.383275
768.8  377.25292  7.3831566
768.9  359.85155  7.3830382
769  476.08948  7.3829199
769.1  552.7685  7.3828015
769.2  627.88896  7.3826831
769.3  621.31635  7.3825648
769.4  717.21094  7.3824464
769.5  782.51414  7.3823281
769.6  786.63953  7.3822098
769.7  773.49477  7.3820914
769.8  750.13065  7.3819731
769.9  749.55881  7.3818548
770  831.53727  7.3817365
770.1  730.02987  7.3816182
770.2  834.11619  7.3814999
770.3  823.93813  7.3813816
770.4  818.84111  7.3812633
770.5  798.92062  7.3811451
770.6  802.14115  7.3810268
770.7  748.93404  7.3809085
770.8  712.84636  7.3807903
770.9  736.4444  7.380672
771  790.96365  7.3805538
771.1  790.17193  7.3804356
771.2  841.53799  7.3803173
771.3  814.91371  7.3801991
771.4  771.05585  7.3800809
771.5  821.63085  7.3799627
771.6  910.559  7.3798445
771.7  807.98395  7.3797263
771.8  711.68817  7.3796081
771.9  682.50817  7.3794899
772  642.88767  7.3793718
772.1  486.74055  7.3792536
772.2  639.96186  7.3791354
772.3  639.98438  7.3790173
772.4  569.98491  7.3788991
772.5  634.39054  7.378781
772.6  741.62082  7.3786629
772.7  738.06699  7.3785447
772.8  783.31646  7.3784266
772.9  745.24004  7.3783085
773  813.64329  7.3781904
773.1  734.75737  7.3780723
773.2  770.24122  7.3779542
773.3  772.68774  7.3778361
773.4  744.55268  7.377718
773.5  749.65781  7.3776
773.6  737.02063  7.3774819
773.7  675.48175  7.3773638
773.8  596.25926  7.3772458
773.9  475.01856  7.3771277
774  359.35699  7.3770097
774.1  304.87305  7.3768917
774.2  201.52554  7.3767736
774.3  203.92165  7.3766556
774.4  130.50507  7.3765376
774.5  103.90978  7.3764196
774.6  79.467506  7.3763016
774.7  62.53648  7.3761836
774.8  46.536045  7.3760656
774.9  60.288615  7.3759476
775  49.068025  7.3758297
775.1  19.114115  7.3757117
775.2  37.856835  7.3755937
775.3  30.863025  7.3754758
775.4  38.838675  7.3753578
775.5  22.6121  7.3752399
775.6  20.2976  7.375122
775.7  24.353615  7.375004
775.8  22.399855  7.3748861
775.9  14.32328  7.3747682
776  10.208475  7.3746503
776.1  17.093375  7.3745324
776.2  14.140675  7.3744145
776.3  7.101575  7.3742966
776.4  11.23472  7.3741787
776.5  15.33988  7.3740609
776.6  4.6639  7.373943
776.7  12.68989  7.3738251
776.8  19.99551  7.3737073
776.9  13.208  7.3735894
777  7.26405  7.3734716
777.1  5.60405  7.3733538
777.2  3.634565  7.3732359
777.3  10.548385  7.3731181
777.4  1.92345  7.3730003
777.5  13.3748  7.3728825
777.6  5.5188  7.3727647
777.7  0  7.3726469
777.8  0.59585  7.3725291
777.9  6.66815  7.3724113
778  8.24275  7.3722936
778.1  12.3999  7.3721758
778.2  7.90662  7.372058
778.3  8.246525  7.3719403
778.4  2.693655  7.3718225
778.5  3.24655  7.3717048
778.6  4.05535  7.3715871
778.7  5.04745  7.3714693
778.8  15.21225  7.3713516
778.9  3.9322  7.3712339
779  8.50175  7.3711162
779.1  7.310795  7.3709985
779.2  0.940205  7.3708808
779.3  0  7.3707631
779.4  2.09405  7.3706454
779.5  12.0889  7.3705278
779.6  0.81705  7.3704101
779.7  3.28955  7.3702924
779.8  6.66815  7.3701748
779.9  0.0423  7.3700571
780  4.78325  7.3699395
780.1  6.32315  7.3698219
780.2  6.79575  7.3697042
780.3  9.7833  7.3695866
780.4  14.021265  7.369469
780.5  10.851104  7.3693514
780.6  7.442181  7.3692338
780.7  6.06405  7.3691162
780.8  3.93595  7.3689986
780.9  0.085319  7.368881
781  4.914681  7.3687634
781.1  0  7.3686459
781.2  8.1196  7.3685283
781.3  18.6301  7.3684108
781.4  5.1314  7.3682932
781.5  3.1189  7.3681757
781.6  2.90215  7.3680581
781.7  7.6514  7.3679406
781.8  6.45519  7.3678231
781.9  2.99126  7.3677056
782  0  7.3675881
782.1  0.59585  7.3674706
782.2  7.5616  7.3673531
782.3  4.191865  7.3672356
782.4  7.650685  7.3671181
782.5  3.80005  7.3670006
782.6  4.69795  7.3668832
782.7  10.90237  7.3667657
782.8  8.633895  7.3666482
782.9  4.867885  7.3665308
783  7.0088  7.3664134
783.1  11.8002  7.3662959
783.2  18.4513  7.3661785
783.3  12.7442  7.3660611
783.4  14.476715  7.3659437
783.5  12.655185  7.3658262
783.6  4.96145  7.3657088
783.7  6.96195  7.3655914
783.8  3.03805  7.3654741
783.9  0  7.3653567
784  2.864315  7.3652393
784.1  18.029835  7.3651219
784.2  7.523  7.3650046
784.3  1.58285  7.3648872
784.4  5.762015  7.3647699
784.5  12.267785  7.3646525
784.6  2.05105  7.3645352
784.7  4.91915  7.3644179
784.8  3.0298  7.3643005
784.9  2.953415  7.3641832
785  10.85556  7.3640659

