# Created by:        SpecsLab Prodigy, Version 4.84.1-r101483 
#
# XY-Serializer Export Settings:
#   Comment Prefix:           #
#   Output Meta Data:         yes
#   Energy Axis:              Kinetic Energy
#   Count Rate:               Counts per Second
#   Separate Scan Data:       no
#   Separate Channel Data:    no
#   External Channel Data:    yes
#   Transmission Function:    yes
#   Error Bar:                no
#   Operation Results:        yes
#   Time Zone Format:         UTC
#
# Group:                        L-serine pH 7 500 mM
#
# Region:                       O 1s ref
# Spectrum ID:                  676
# Acquisition Date:             03/12/26 14:05:31 UTC
# Analysis Method:              XPS
# Analyzer:                     Phoibos
# Analyzer Lens:                LargeArea:3.5kV
# Analyzer Slit:                5:7x20\B:open
# Scan Mode:                    FixedAnalyzerTransmission
# Curves/Scan:                  1
# Values/Curve:                 151
# Dwell Time:                   0.1
# Excitation Energy:            900
# Kinetic Energy:               360
# Pass Energy:                  20
# Bias Voltage:                 220
# Detector Voltage:             1920
# Eff. Workfunction:            0
# Source:                       Monochromator
# Comment:                      

# Cycle: 0
#
# Number of Scans: 1

# Cycle: 0, Curve: 0
#
# Acquisition Date:             03/12/26 14:05:31 UTC
# ColumnLabels:                 energy counts/s transmission
#
360  6616.0323  16.44968
360.1  6506.1138  16.449603
360.2  6129.4608  16.449526
360.3  6005.6814  16.449449
360.4  6155.8624  16.449371
360.5  5932.3453  16.449294
360.6  5774.0554  16.449217
360.7  5709.8018  16.449139
360.8  5492.1492  16.449062
360.9  5700.2929  16.448985
361  5864.075  16.448907
361.1  5578.2073  16.448829
361.2  5548.7362  16.448752
361.3  5258.5952  16.448674
361.4  5273.3372  16.448596
361.5  5438.8821  16.448518
361.6  5603.4543  16.44844
361.7  5229.249  16.448363
361.8  5154.155  16.448285
361.9  5040.186  16.448206
362  5490.8761  16.448128
362.1  4901.0017  16.44805
362.2  5604.8127  16.447972
362.3  5737.7775  16.447894
362.4  5114.1757  16.447815
362.5  5439.4829  16.447737
362.6  5963.3265  16.447658
362.7  5762.2081  16.44758
362.8  5595.0238  16.447501
362.9  5663.2141  16.447423
363  6006.3789  16.447344
363.1  6083.0117  16.447265
363.2  6298.1099  16.447187
363.3  6063.1021  16.447108
363.4  6144.4229  16.447029
363.5  6403.867  16.44695
363.6  6336.2004  16.446871
363.7  6503.4944  16.446792
363.8  6353.6476  16.446713
363.9  6585.5048  16.446634
364  7325.4099  16.446554
364.1  7192.0914  16.446475
364.2  7306.3448  16.446396
364.3  7886.0576  16.446316
364.4  8054.9646  16.446237
364.5  8932.2536  16.446158
364.6  9661.6922  16.446078
364.7  11613.101  16.445998
364.8  13920.69  16.445919
364.9  17636.418  16.445839
365  23149.313  16.445759
365.1  30066.66  16.445679
365.2  38482.712  16.4456
365.3  48094.718  16.44552
365.4  53795.42  16.44544
365.5  55979.545  16.44536
365.6  55955.129  16.44528
365.7  51684.833  16.445199
365.8  46418.228  16.445119
365.9  42084.897  16.445039
366  40032.746  16.444959
366.1  41487.724  16.444878
366.2  46258.74  16.444798
366.3  52419.781  16.444718
366.4  59560.107  16.444637
366.5  67647.544  16.444556
366.6  75829.258  16.444476
366.7  83141.754  16.444395
366.8  90270.025  16.444314
366.9  95831.679  16.444234
367  100614.59  16.444153
367.1  104218.62  16.444072
367.2  106280.55  16.443991
367.3  105425.53  16.44391
367.4  102047.53  16.443829
367.5  97028.818  16.443748
367.6  89878.983  16.443667
367.7  81664.334  16.443586
367.8  73583.773  16.443504
367.9  64723.381  16.443423
368  56776.409  16.443342
368.1  49188.331  16.44326
368.2  40041.331  16.443179
368.3  34856.554  16.443097
368.4  28521.44  16.443016
368.5  23535.172  16.442934
368.6  19888.475  16.442852
368.7  16891.583  16.442771
368.8  14910.198  16.442689
368.9  13656.046  16.442607
369  12243.006  16.442525
369.1  10876.22  16.442443
369.2  10119.09  16.442361
369.3  9021.4417  16.442279
369.4  8758.7585  16.442197
369.5  8167.8802  16.442115
369.6  7646.0149  16.442033
369.7  7699.2426  16.44195
369.8  7346.2604  16.441868
369.9  6963.6353  16.441786
370  6466.9908  16.441703
370.1  6606.667  16.441621
370.2  6159.9408  16.441538
370.3  5923.8098  16.441456
370.4  6323.0493  16.441373
370.5  6260.8677  16.441291
370.6  6256.4967  16.441208
370.7  6133.6709  16.441125
370.8  6128.7151  16.441042
370.9  6163.4397  16.440959
371  6187.1493  16.440876
371.1  6160.5291  16.440793
371.2  6036.4122  16.44071
371.3  5818.5917  16.440627
371.4  5754.5  16.440544
371.5  5425.3111  16.440461
371.6  5445.7627  16.440378
371.7  6020.5879  16.440295
371.8  5708.2788  16.440211
371.9  5168.4476  16.440128
372  5176.7365  16.440044
372.1  5528.172  16.439961
372.2  5592.089  16.439877
372.3  5385.3526  16.439794
372.4  5452.4722  16.43971
372.5  5182.8146  16.439626
372.6  5635.9485  16.439543
372.7  5732.3208  16.439459
372.8  5614.5308  16.439375
372.9  5728.9862  16.439291
373  5547.3793  16.439207
373.1  5748.0567  16.439123
373.2  5290.8746  16.439039
373.3  5494.4786  16.438955
373.4  5339.1713  16.438871
373.5  5932.6981  16.438787
373.6  5587.4765  16.438703
373.7  5267.67  16.438618
373.8  5335.9046  16.438534
373.9  5549.7265  16.438449
374  5680.7304  16.438365
374.1  5429.7581  16.438281
374.2  5557.6065  16.438196
374.3  5532.8029  16.438111
374.4  5683.9689  16.438027
374.5  5466.2596  16.437942
374.6  5449.3655  16.437857
374.7  5548.1219  16.437772
374.8  5505.4976  16.437688
374.9  5298.0901  16.437603
375  5396.273  16.437518

