# Created by:        SpecsLab Prodigy, Version 4.84.1-r101483 
#
# XY-Serializer Export Settings:
#   Comment Prefix:           #
#   Output Meta Data:         yes
#   Energy Axis:              Kinetic Energy
#   Count Rate:               Counts per Second
#   Separate Scan Data:       no
#   Separate Channel Data:    no
#   External Channel Data:    yes
#   Transmission Function:    yes
#   Error Bar:                no
#   Operation Results:        yes
#   Time Zone Format:         UTC
#
# Group:                        L-serine pH 7 500 mM
#
# Region:                       O 1s ref
# Spectrum ID:                  652
# Acquisition Date:             03/12/26 09:29:12 UTC
# Analysis Method:              XPS
# Analyzer:                     Phoibos
# Analyzer Lens:                LargeArea:3.5kV
# Analyzer Slit:                5:7x20\B:open
# Scan Mode:                    FixedAnalyzerTransmission
# Curves/Scan:                  1
# Values/Curve:                 151
# Dwell Time:                   0.1
# Excitation Energy:            900
# Kinetic Energy:               360
# Pass Energy:                  20
# Bias Voltage:                 220
# Detector Voltage:             1920
# Eff. Workfunction:            0
# Source:                       Monochromator
# Comment:                      

# Cycle: 0
#
# Number of Scans: 1

# Cycle: 0, Curve: 0
#
# Acquisition Date:             03/12/26 09:29:12 UTC
# ColumnLabels:                 energy counts/s transmission
#
360  10330.469  16.44968
360.1  10331.444  16.449603
360.2  10304.1  16.449526
360.3  10473.179  16.449449
360.4  10592.691  16.449371
360.5  10502.409  16.449294
360.6  10330.295  16.449217
360.7  9822.3734  16.449139
360.8  9424.1265  16.449062
360.9  9192.42  16.448985
361  9162.4368  16.448907
361.1  9433.1192  16.448829
361.2  9177.6508  16.448752
361.3  9336.1894  16.448674
361.4  9414.7171  16.448596
361.5  9445.767  16.448518
361.6  9229.8346  16.44844
361.7  9121.6491  16.448363
361.8  9029.5194  16.448285
361.9  9006.4057  16.448206
362  9126.9277  16.448128
362.1  9603.7354  16.44805
362.2  9576.1966  16.447972
362.3  9547.0353  16.447894
362.4  9654.6682  16.447815
362.5  10035.225  16.447737
362.6  9953.0635  16.447658
362.7  9989.3367  16.44758
362.8  9975.7823  16.447501
362.9  9839.3848  16.447423
363  10238.112  16.447344
363.1  9874.7672  16.447265
363.2  10527.686  16.447187
363.3  10843.724  16.447108
363.4  10381.718  16.447029
363.5  10741.566  16.44695
363.6  11364.3  16.446871
363.7  11218.982  16.446792
363.8  11234.829  16.446713
363.9  12401.737  16.446634
364  13297.785  16.446554
364.1  14972.115  16.446475
364.2  16847.284  16.446396
364.3  18852.223  16.446316
364.4  22803.369  16.446237
364.5  28716.406  16.446158
364.6  36476.954  16.446078
364.7  45073.273  16.445998
364.8  54478.62  16.445919
364.9  64159.144  16.445839
365  71196.733  16.445759
365.1  74138.981  16.445679
365.2  74354.283  16.4456
365.3  70598.544  16.44552
365.4  62369.989  16.44544
365.5  57701.123  16.44536
365.6  53229.827  16.44528
365.7  51899.62  16.445199
365.8  54335.457  16.445119
365.9  60506.227  16.445039
366  68757.16  16.444959
366.1  78844.464  16.444878
366.2  90892.281  16.444798
366.3  104469.73  16.444718
366.4  116923.2  16.444637
366.5  129496.78  16.444556
366.6  142380.31  16.444476
366.7  154725.6  16.444395
366.8  167588.26  16.444314
366.9  171864.48  16.444234
367  177580.85  16.444153
367.1  179527.79  16.444072
367.2  175682.2  16.443991
367.3  169193.21  16.44391
367.4  160760.28  16.443829
367.5  150016.74  16.443748
367.6  135903.84  16.443667
367.7  120819.36  16.443586
367.8  106217.97  16.443504
367.9  91227.639  16.443423
368  78546.551  16.443342
368.1  65055.491  16.44326
368.2  54215.627  16.443179
368.3  44954.732  16.443097
368.4  38660.974  16.443016
368.5  32370.806  16.442934
368.6  26859.093  16.442852
368.7  23635.346  16.442771
368.8  21349.991  16.442689
368.9  18965.426  16.442607
369  17801.479  16.442525
369.1  15908.671  16.442443
369.2  15338.787  16.442361
369.3  14057.776  16.442279
369.4  13005.991  16.442197
369.5  12439.458  16.442115
369.6  12865.454  16.442033
369.7  12141.974  16.44195
369.8  11041.116  16.441868
369.9  11015.487  16.441786
370  10775.347  16.441703
370.1  10779.119  16.441621
370.2  10574.656  16.441538
370.3  10538.381  16.441456
370.4  10272.985  16.441373
370.5  9963.122  16.441291
370.6  10168.895  16.441208
370.7  10153.972  16.441125
370.8  9930.0948  16.441042
370.9  9793.1652  16.440959
371  9789.9021  16.440876
371.1  9655.1589  16.440793
371.2  9867.9315  16.44071
371.3  9460.1092  16.440627
371.4  9334.1571  16.440544
371.5  9604.1016  16.440461
371.6  9532.9146  16.440378
371.7  9709.282  16.440295
371.8  9601.8089  16.440211
371.9  9674.982  16.440128
372  9922.2989  16.440044
372.1  9412.9692  16.439961
372.2  9222.3441  16.439877
372.3  9168.8944  16.439794
372.4  9530.4871  16.43971
372.5  9197.4523  16.439626
372.6  9428.22  16.439543
372.7  9489.4865  16.439459
372.8  9282.4467  16.439375
372.9  9752.4081  16.439291
373  9735.0802  16.439207
373.1  9365.4635  16.439123
373.2  9053.3522  16.439039
373.3  8904.6203  16.438955
373.4  8690.9634  16.438871
373.5  9212.4244  16.438787
373.6  9092.4998  16.438703
373.7  8766.9305  16.438618
373.8  9108.0404  16.438534
373.9  9261.2643  16.438449
374  8959.4532  16.438365
374.1  9448.0749  16.438281
374.2  9265.1156  16.438196
374.3  8745.3299  16.438111
374.4  9083.654  16.438027
374.5  9467.2119  16.437942
374.6  8974.9352  16.437857
374.7  9263.8184  16.437772
374.8  9115.0556  16.437688
374.9  9461.4546  16.437603
375  9029.1229  16.437518

