# Created by:        SpecsLab Prodigy, Version 4.84.1-r101483 
#
# XY-Serializer Export Settings:
#   Comment Prefix:           #
#   Output Meta Data:         yes
#   Energy Axis:              Kinetic Energy
#   Count Rate:               Counts per Second
#   Separate Scan Data:       no
#   Separate Channel Data:    no
#   External Channel Data:    yes
#   Transmission Function:    yes
#   Error Bar:                no
#   Operation Results:        yes
#   Time Zone Format:         UTC
#
# Group:                        L-serine pH 7 500 mM
#
# Region:                       O 1s ref
# Spectrum ID:                  660
# Acquisition Date:             03/12/26 10:19:36 UTC
# Analysis Method:              XPS
# Analyzer:                     Phoibos
# Analyzer Lens:                LargeArea:3.5kV
# Analyzer Slit:                5:7x20\B:open
# Scan Mode:                    FixedAnalyzerTransmission
# Curves/Scan:                  1
# Values/Curve:                 151
# Dwell Time:                   0.1
# Excitation Energy:            900
# Kinetic Energy:               360
# Pass Energy:                  20
# Bias Voltage:                 220
# Detector Voltage:             1920
# Eff. Workfunction:            0
# Source:                       Monochromator
# Comment:                      

# Cycle: 0
#
# Number of Scans: 1

# Cycle: 0, Curve: 0
#
# Acquisition Date:             03/12/26 10:19:36 UTC
# ColumnLabels:                 energy counts/s transmission
#
360  11436.681  16.44968
360.1  11785.74  16.449603
360.2  11791.926  16.449526
360.3  10946.267  16.449449
360.4  10829.009  16.449371
360.5  10593.822  16.449294
360.6  10831.912  16.449217
360.7  10746.225  16.449139
360.8  10299.325  16.449062
360.9  10419.443  16.448985
361  9918.3718  16.448907
361.1  9766.8711  16.448829
361.2  9724.5584  16.448752
361.3  10268.109  16.448674
361.4  9889.9992  16.448596
361.5  9868.4927  16.448518
361.6  9685.263  16.44844
361.7  9892.3157  16.448363
361.8  10078.346  16.448285
361.9  9756.5641  16.448206
362  9894.2639  16.448128
362.1  9374.0926  16.44805
362.2  9501.9575  16.447972
362.3  9545.9997  16.447894
362.4  9650.0388  16.447815
362.5  10059.312  16.447737
362.6  10217.722  16.447658
362.7  10004.908  16.44758
362.8  10442.971  16.447501
362.9  10824.502  16.447423
363  10590.677  16.447344
363.1  11173.134  16.447265
363.2  11222.867  16.447187
363.3  11318.866  16.447108
363.4  11471.903  16.447029
363.5  12139.688  16.44695
363.6  11456.199  16.446871
363.7  11318.224  16.446792
363.8  11517.486  16.446713
363.9  12035.335  16.446634
364  11938.713  16.446554
364.1  12414.691  16.446475
364.2  13244.081  16.446396
364.3  14229.225  16.446316
364.4  15162.315  16.446237
364.5  17284.758  16.446158
364.6  20810.562  16.446078
364.7  24736.058  16.445998
364.8  29974.728  16.445919
364.9  38438.201  16.445839
365  47925.551  16.445759
365.1  59384.64  16.445679
365.2  68321.268  16.4456
365.3  75174.236  16.44552
365.4  78568.625  16.44544
365.5  78017.984  16.44536
365.6  71869.919  16.44528
365.7  64128.518  16.445199
365.8  58962.233  16.445119
365.9  56357.879  16.445039
366  57861.343  16.444959
366.1  61430.748  16.444878
366.2  69580.407  16.444798
366.3  81247.496  16.444718
366.4  94003.89  16.444637
366.5  106485.88  16.444556
366.6  118899.73  16.444476
366.7  133343.28  16.444395
366.8  146903.41  16.444314
366.9  159587.38  16.444234
367  171963.57  16.444153
367.1  179646.34  16.444072
367.2  184627.39  16.443991
367.3  186836.46  16.44391
367.4  185362.65  16.443829
367.5  177224.13  16.443748
367.6  169753.19  16.443667
367.7  157696.14  16.443586
367.8  145047.07  16.443504
367.9  128763.61  16.443423
368  115498.22  16.443342
368.1  101298.7  16.44326
368.2  83751.17  16.443179
368.3  69913.374  16.443097
368.4  58741.376  16.443016
368.5  49332.876  16.442934
368.6  41038.05  16.442852
368.7  34520.163  16.442771
368.8  29839.464  16.442689
368.9  25282.349  16.442607
369  22952.542  16.442525
369.1  20671.822  16.442443
369.2  18361.747  16.442361
369.3  16900.069  16.442279
369.4  16299.531  16.442197
369.5  14730.165  16.442115
369.6  14022.246  16.442033
369.7  13549.478  16.44195
369.8  12716.568  16.441868
369.9  12160.128  16.441786
370  11794.512  16.441703
370.1  11447.702  16.441621
370.2  11345.594  16.441538
370.3  11540.689  16.441456
370.4  10891.147  16.441373
370.5  10856.492  16.441291
370.6  10535.222  16.441208
370.7  10567.726  16.441125
370.8  10330.843  16.441042
370.9  10518.888  16.440959
371  10111.519  16.440876
371.1  9927.78  16.440793
371.2  10303.94  16.44071
371.3  9851.9517  16.440627
371.4  9483.264  16.440544
371.5  10002.806  16.440461
371.6  10032.018  16.440378
371.7  10015.902  16.440295
371.8  9816.0721  16.440211
371.9  10045.373  16.440128
372  9457.8337  16.440044
372.1  9420.3103  16.439961
372.2  9818.0232  16.439877
372.3  9431.8056  16.439794
372.4  9408.5456  16.43971
372.5  10039.272  16.439626
372.6  9915.2603  16.439543
372.7  9600.8276  16.439459
372.8  9524.1958  16.439375
372.9  9678.4458  16.439291
373  9702.6955  16.439207
373.1  9395.2206  16.439123
373.2  9650.4226  16.439039
373.3  9804.5859  16.438955
373.4  9638.0267  16.438871
373.5  9370.8289  16.438787
373.6  9648.0106  16.438703
373.7  9652.8589  16.438618
373.8  9089.2842  16.438534
373.9  9379.7465  16.438449
374  9402.4801  16.438365
374.1  9427.4795  16.438281
374.2  9281.707  16.438196
374.3  9258.3802  16.438111
374.4  9365.7667  16.438027
374.5  9187.5791  16.437942
374.6  9270.6141  16.437857
374.7  9166.4996  16.437772
374.8  9593.3316  16.437688
374.9  9366.0779  16.437603
375  9035.1837  16.437518

