# Created by:        SpecsLab Prodigy, Version 4.84.1-r101483 
#
# XY-Serializer Export Settings:
#   Comment Prefix:           #
#   Output Meta Data:         yes
#   Energy Axis:              Kinetic Energy
#   Count Rate:               Counts per Second
#   Separate Scan Data:       no
#   Separate Channel Data:    no
#   External Channel Data:    yes
#   Transmission Function:    yes
#   Error Bar:                no
#   Operation Results:        yes
#   Time Zone Format:         UTC
#
# Group:                        L-serine pH 7 500 mM
#
# Region:                       O 1s 170
# Spectrum ID:                  685
# Acquisition Date:             03/12/26 14:57:42 UTC
# Analysis Method:              XPS
# Analyzer:                     Phoibos
# Analyzer Lens:                LargeArea:3.5kV
# Analyzer Slit:                5:7x20\B:open
# Scan Mode:                    FixedAnalyzerTransmission
# Curves/Scan:                  1
# Values/Curve:                 151
# Dwell Time:                   0.1
# Excitation Energy:            700
# Kinetic Energy:               160
# Pass Energy:                  10
# Bias Voltage:                 220
# Detector Voltage:             1920
# Eff. Workfunction:            0
# Source:                       Monochromator
# Comment:                      

# Cycle: 0
#
# Number of Scans: 4

# Cycle: 0, Curve: 0
#
# Acquisition Date:             03/12/26 14:57:42 UTC
# ColumnLabels:                 energy counts/s transmission
#
160  143.81652  8.1529831
160.1  128.51987  8.1529335
160.2  112.67524  8.1528838
160.3  134.11363  8.1528339
160.4  142.9396  8.1527839
160.5  112.76391  8.1527337
160.6  100.3309  8.1526834
160.7  125.28045  8.1526328
160.8  112.76209  8.1525822
160.9  118.22607  8.1525314
161  90.930132  8.1524804
161.1  114.5577  8.1524292
161.2  108.95743  8.1523779
161.3  110.91967  8.1523265
161.4  115.75299  8.1522749
161.5  115.06643  8.1522231
161.6  91.648503  8.1521712
161.7  110.71078  8.1521192
161.8  111.11165  8.1520669
161.9  109.26531  8.1520146
162  122.65045  8.151962
162.1  106.85541  8.1519094
162.2  109.99434  8.1518565
162.3  121.93944  8.1518035
162.4  107.74082  8.1517504
162.5  107.7208  8.1516971
162.6  99.872408  8.1516437
162.7  94.963545  8.1515901
162.8  109.72514  8.1515363
162.9  84.319067  8.1514824
163  97.924495  8.1514284
163.1  110.92527  8.1513742
163.2  112.64248  8.1513198
163.3  102.5294  8.1512653
163.4  111.33329  8.1512107
163.5  114.66445  8.1511559
163.6  110.32462  8.1511009
163.7  101.14804  8.1510458
163.8  101.84849  8.1509906
163.9  116.05157  8.1509352
164  150.75961  8.1508796
164.1  106.91278  8.1508239
164.2  115.43417  8.1507681
164.3  168.13808  8.1507121
164.4  175.97017  8.150656
164.5  217.15314  8.1505997
164.6  280.60286  8.1505433
164.7  303.14617  8.1504867
164.8  386.33207  8.15043
164.9  596.55736  8.1503731
165  881.98845  8.1503161
165.1  1333.6009  8.150259
165.2  2071.878  8.1502017
165.3  3166.6214  8.1501442
165.4  4072.728  8.1500866
165.5  4846.0133  8.1500289
165.6  4726.5104  8.149971
165.7  3891.5479  8.149913
165.8  2526.4473  8.1498548
165.9  1361.2652  8.1497965
166  653.67882  8.1497381
166.1  410.30592  8.1496795
166.2  376.60457  8.1496207
166.3  358.60325  8.1495619
166.4  308.0546  8.1495028
166.5  333.56598  8.1494437
166.6  343.46831  8.1493844
166.7  372.58773  8.1493249
166.8  353.06732  8.1492653
166.9  366.40745  8.1492056
167  381.17096  8.1491457
167.1  393.48207  8.1490857
167.2  337.896  8.1490256
167.3  402.91301  8.1489653
167.4  335.53537  8.1489049
167.5  340.83186  8.1488443
167.6  378.30867  8.1487836
167.7  329.82511  8.1487228
167.8  282.1874  8.1486618
167.9  303.84264  8.1486007
168  249.72088  8.1485394
168.1  198.85378  8.148478
168.2  212.37698  8.1484165
168.3  164.90842  8.1483548
168.4  155.1186  8.148293
168.5  159.82027  8.1482311
168.6  165.03666  8.148169
168.7  130.37438  8.1481068
168.8  142.16742  8.1480444
168.9  121.66756  8.1479819
169  103.89552  8.1479193
169.1  98.379072  8.1478565
169.2  111.10061  8.1477937
169.3  120.65313  8.1477306
169.4  89.358255  8.1476675
169.5  86.034863  8.1476042
169.6  94.644123  8.1475407
169.7  91.97225  8.1474772
169.8  83.72272  8.1474135
169.9  69.34619  8.1473496
170  80.186008  8.1472857
170.1  89.502567  8.1472216
170.2  95.551093  8.1471573
170.3  67.50559  8.147093
170.4  80.401075  8.1470285
170.5  89.195685  8.1469638
170.6  92.95816  8.1468991
170.7  76.769124  8.1468342
170.8  75.991685  8.1467692
170.9  86.710046  8.146704
171  69.066547  8.1466387
171.1  88.840456  8.1465733
171.2  66.684285  8.1465078
171.3  67.587855  8.1464421
171.4  79.339972  8.1463763
171.5  65.841099  8.1463104
171.6  84.453046  8.1462443
171.7  87.427718  8.1461781
171.8  62.96981  8.1461118
171.9  73.861917  8.1460453
172  75.073163  8.1459787
172.1  100.01054  8.145912
172.2  80.49513  8.1458452
172.3  91.498122  8.1457782
172.4  103.47685  8.1457111
172.5  94.89325  8.1456439
172.6  85.204017  8.1455766
172.7  83.987577  8.1455091
172.8  83.248727  8.1454415
172.9  78.089446  8.1453738
173  81.505807  8.1453059
173.1  65.385795  8.1452379
173.2  79.190898  8.1451698
173.3  65.36204  8.1451016
173.4  71.451097  8.1450332
173.5  78.046443  8.1449648
173.6  60.548198  8.1448961
173.7  62.809663  8.1448274
173.8  85.63823  8.1447586
173.9  85.174355  8.1446896
174  63.61635  8.1446205
174.1  81.9428  8.1445512
174.2  72.069202  8.1444819
174.3  83.679878  8.1444124
174.4  75.268599  8.1443428
174.5  89.844514  8.1442731
174.6  77.214784  8.1442032
174.7  77.78277  8.1441333
174.8  65.463737  8.1440632
174.9  53.478918  8.143993
175  79.249505  8.1439226

