# Created by:        SpecsLab Prodigy, Version 4.84.1-r101483 
#
# XY-Serializer Export Settings:
#   Comment Prefix:           #
#   Output Meta Data:         yes
#   Energy Axis:              Kinetic Energy
#   Count Rate:               Counts per Second
#   Separate Scan Data:       no
#   Separate Channel Data:    no
#   External Channel Data:    yes
#   Transmission Function:    yes
#   Error Bar:                no
#   Operation Results:        yes
#   Time Zone Format:         UTC
#
# Group:                        L-serine pH 7 500 mM
#
# Region:                       VBM
# Spectrum ID:                  654
# Acquisition Date:             03/12/26 09:33:50 UTC
# Analysis Method:              XPS
# Analyzer:                     Phoibos
# Analyzer Lens:                LargeArea:3.5kV
# Analyzer Slit:                5:7x20\B:open
# Scan Mode:                    FixedAnalyzerTransmission
# Curves/Scan:                  1
# Values/Curve:                 251
# Dwell Time:                   0.1
# Excitation Energy:            680
# Kinetic Energy:               660
# Pass Energy:                  10
# Bias Voltage:                 220
# Detector Voltage:             1920
# Eff. Workfunction:            0
# Source:                       Monochromator
# Comment:                      

# Cycle: 0
#
# Number of Scans: 2

# Cycle: 0, Curve: 0
#
# Acquisition Date:             03/12/26 09:33:50 UTC
# ColumnLabels:                 energy counts/s transmission
#
660  31.970265  7.5159814
660.1  17.305535  7.5158556
660.2  12.821345  7.5157298
660.3  20.08977  7.5156039
660.4  31.70228  7.5154781
660.5  17.314505  7.5153523
660.6  11.3744  7.5152266
660.7  10.29375  7.5151008
660.8  7.9913  7.514975
660.9  25.204719  7.5148492
661  19.450945  7.5147235
661.1  26.357136  7.5145977
661.2  15.5745  7.514472
661.3  9.2171  7.5143462
661.4  14.96585  7.5142205
661.5  14.14505  7.5140948
661.6  37.251365  7.5139691
661.7  41.16213  7.5138433
661.8  20.943955  7.5137176
661.9  32.958565  7.5135919
662  24.096975  7.5134662
662.1  17.26331  7.5133406
662.2  7.8636  7.5132149
662.3  15.75381  7.5130892
662.4  26.50569  7.5129635
662.5  10.7332  7.5128379
662.6  23.67545  7.5127122
662.7  13.84302  7.5125866
662.8  15.64643  7.512461
662.9  6.5836  7.5123353
663  19.6081  7.5122097
663.1  9.01235  7.5120841
663.2  14.4048  7.5119585
663.3  20.765875  7.5118329
663.4  24.834475  7.5117073
663.5  33.229375  7.5115817
663.6  20.314715  7.5114561
663.7  26.06031  7.5113305
663.8  32.05929  7.511205
663.9  43.70271  7.5110794
664  36.11395  7.5109539
664.1  45.94229  7.5108283
664.2  49.62843  7.5107028
664.3  65.22299  7.5105773
664.4  74.769454  7.5104517
664.5  71.962586  7.5103262
664.6  84.773745  7.5102007
664.7  78.958009  7.5100752
664.8  108.09386  7.5099497
664.9  85.98754  7.5098242
665  90.135819  7.5096987
665.1  90.331671  7.5095732
665.2  77.54444  7.5094478
665.3  150.32541  7.5093223
665.4  116.26702  7.5091969
665.5  130.54014  7.5090714
665.6  119.65126  7.508946
665.7  102.49718  7.5088205
665.8  108.96244  7.5086951
665.9  113.99534  7.5085697
666  88.42917  7.5084443
666.1  64.663255  7.5083189
666.2  49.859655  7.5081935
666.3  97.63485  7.5080681
666.4  86.259545  7.5079427
666.5  51.208079  7.5078173
666.6  65.416291  7.5076919
666.7  37.268605  7.5075666
666.8  64.565804  7.5074412
666.9  57.877716  7.5073158
667  75.246334  7.5071905
667.1  68.501715  7.5070652
667.2  65.2766  7.5069398
667.3  78.833821  7.5068145
667.4  52.26829  7.5066892
667.5  68.39561  7.5065639
667.6  67.47631  7.5064386
667.7  88.532055  7.5063133
667.8  67.600414  7.506188
667.9  68.200396  7.5060627
668  89.626785  7.5059374
668.1  94.246704  7.5058122
668.2  118.25021  7.5056869
668.3  126.18041  7.5055616
668.4  132.11862  7.5054364
668.5  165.06531  7.5053112
668.6  185.10733  7.5051859
668.7  257.29179  7.5050607
668.8  274.44663  7.5049355
668.9  232.24927  7.5048103
669  238.96916  7.5046851
669.1  279.91066  7.5045599
669.2  306.68177  7.5044347
669.3  261.81551  7.5043095
669.4  328.40212  7.5041843
669.5  344.8217  7.5040591
669.6  227.3088  7.503934
669.7  228.34379  7.5038088
669.8  176.7824  7.5036837
669.9  170.10928  7.5035585
670  165.4985  7.5034334
670.1  130.4672  7.5033082
670.2  148.85674  7.5031831
670.3  136.24642  7.503058
670.4  116.05886  7.5029329
670.5  94.825715  7.5028078
670.6  118.65074  7.5026827
670.7  124.8388  7.5025576
670.8  157.79755  7.5024325
670.9  146.19565  7.5023075
671  213.18649  7.5021824
671.1  267.73637  7.5020573
671.2  330.77503  7.5019323
671.3  279.46842  7.5018072
671.4  329.10097  7.5016822
671.5  295.43515  7.5015572
671.6  238.12134  7.5014321
671.7  165.25988  7.5013071
671.8  127.5008  7.5011821
671.9  98.026716  7.5010571
672  89.380635  7.5009321
672.1  62.357315  7.5008071
672.2  83.903985  7.5006821
672.3  94.7478  7.5005571
672.4  68.038815  7.5004322
672.5  103.7963  7.5003072
672.6  106.32881  7.5001822
672.7  126.5353  7.5000573
672.8  102.47691  7.4999324
672.9  102.31333  7.4998074
673  74.991695  7.4996825
673.1  107.8688  7.4995576
673.2  105.97506  7.4994326
673.3  118.9736  7.4993077
673.4  94.493395  7.4991828
673.5  92.817415  7.4990579
673.6  90.1903  7.4989331
673.7  52.94895  7.4988082
673.8  44.315015  7.4986833
673.9  55.343735  7.4985584
674  28.73187  7.4984336
674.1  14.263825  7.4983087
674.2  36.629605  7.4981839
674.3  11.71045  7.498059
674.4  17.56155  7.4979342
674.5  7.1402  7.4978094
674.6  9.31505  7.4976846
674.7  15.894115  7.4975597
674.8  13.684435  7.4974349
674.9  7.1281  7.4973101
675  19.96595  7.4971854
675.1  6.45075  7.4970606
675.2  8.92765  7.4969358
675.3  7.315265  7.496811
675.4  15.03413  7.4966863
675.5  11.156905  7.4965615
675.6  7.3961  7.4964368
675.7  11.06785  7.496312
675.8  5.1276  7.4961873
675.9  4.183  7.4960626
676  6.2467  7.4959378
676.1  4.99625  7.4958131
676.2  13.16565  7.4956884
676.3  10.212945  7.4955637
676.4  4.016805  7.495439
676.5  3.719195  7.4953143
676.6  4.87237  7.4951896
676.7  11.361635  7.495065
676.8  9.61265  7.4949403
676.9  3.0425  7.4948156
677  0  7.494691
677.1  0  7.4945664
677.2  0  7.4944417
677.3  0  7.4943171
677.4  0  7.4941925
677.5  5.8088  7.4940678
677.6  4.1912  7.4939432
677.7  1.3661  7.4938186
677.8  10.898585  7.493694
677.9  12.735315  7.4935694
678  0  7.4934449
678.1  4.4427  7.4933203
678.2  4.74025  7.4931957
678.3  3.7237  7.4930711
678.4  4.0976  7.4929466
678.5  16.27702  7.492822
678.6  10.778525  7.4926975
678.7  0.940205  7.492573
678.8  4.00855  7.4924484
678.9  8.12335  7.4923239
679  2.8681  7.4921994
679.1  0.97875  7.4920749
679.2  4.02125  7.4919504
679.3  1.62585  7.4918259
679.4  3.37415  7.4917014
679.5  9.21705  7.4915769
679.6  6.7617  7.4914525
679.7  4.6171  7.491328
679.8  7.39165  7.4912035
679.9  8.8936  7.4910791
680  8.80005  7.4909547
680.1  8.76155  7.4908302
680.2  8.37485  7.4907058
680.3  7.18245  7.4905814
680.4  2.00874  7.4904569
680.5  4.570325  7.4903325
680.6  9.40415  7.4902081
680.7  11.583505  7.4900837
680.8  7.43328  7.4899593
680.9  0  7.489835
681  4.6601  7.4897106
681.1  5.55285  7.4895862
681.2  4.78705  7.4894619
681.3  11.149365  7.4893375
681.4  6.625185  7.4892132
681.5  6.0255  7.4890888
681.6  6.234  7.4889645
681.7  4.96595  7.4888402
681.8  6.319345  7.4887158
681.9  3.680655  7.4885915
682  0  7.4884672
682.1  2.65135  7.4883429
682.2  2.34865  7.4882186
682.3  0  7.4880943
682.4  2.90665  7.4879701
682.5  6.57905  7.4878458
682.6  10.5143  7.4877215
682.7  0  7.4875973
682.8  2.13637  7.487473
682.9  4.48948  7.4873488
683  11.3661  7.4872245
683.1  5.6805  7.4871003
683.2  6.24292  7.4869761
683.3  8.50178  7.4868519
683.4  1.58285  7.4867277
683.5  0  7.4866035
683.6  6.53225  7.4864793
683.7  17.10235  7.4863551
683.8  1.3654  7.4862309
683.9  0  7.4861067
684  9.004789  7.4859825
684.1  23.297761  7.4858584
684.2  13.24655  7.4857342
684.3  4.4509  7.4856101
684.4  0  7.4854859
684.5  0  7.4853618
684.6  3.28955  7.4852377
684.7  6.75345  7.4851136
684.8  7.221  7.4849895
684.9  9.52355  7.4848653
685  12.34865  7.4847413

