# Created by:        SpecsLab Prodigy, Version 4.84.1-r101483 
#
# XY-Serializer Export Settings:
#   Comment Prefix:           #
#   Output Meta Data:         yes
#   Energy Axis:              Kinetic Energy
#   Count Rate:               Counts per Second
#   Separate Scan Data:       no
#   Separate Channel Data:    no
#   External Channel Data:    yes
#   Transmission Function:    yes
#   Error Bar:                no
#   Operation Results:        yes
#   Time Zone Format:         UTC
#
# Group:                        L-serine pH 7 500 mM
#
# Region:                       O 1s 150
# Spectrum ID:                  653
# Acquisition Date:             03/12/26 09:32:34 UTC
# Analysis Method:              XPS
# Analyzer:                     Phoibos
# Analyzer Lens:                LargeArea:3.5kV
# Analyzer Slit:                5:7x20\B:open
# Scan Mode:                    FixedAnalyzerTransmission
# Curves/Scan:                  1
# Values/Curve:                 151
# Dwell Time:                   0.1
# Excitation Energy:            680
# Kinetic Energy:               140
# Pass Energy:                  10
# Bias Voltage:                 220
# Detector Voltage:             1920
# Eff. Workfunction:            0
# Source:                       Monochromator
# Comment:                      

# Cycle: 0
#
# Number of Scans: 4

# Cycle: 0, Curve: 0
#
# Acquisition Date:             03/12/26 09:32:34 UTC
# ColumnLabels:                 energy counts/s transmission
#
140  75.46828  8.1592688
140.1  73.438638  8.1592578
140.2  90.830602  8.1592465
140.3  79.754141  8.1592349
140.4  50.597472  8.1592232
140.5  49.948393  8.1592112
140.6  65.307877  8.1591989
140.7  70.893103  8.1591865
140.8  61.436372  8.1591738
140.9  76.33555  8.1591609
141  75.615958  8.1591478
141.1  73.133422  8.1591344
141.2  63.404494  8.1591208
141.3  73.093986  8.159107
141.4  67.193163  8.1590929
141.5  76.64927  8.1590787
141.6  65.124693  8.1590642
141.7  67.925564  8.1590495
141.8  57.456083  8.1590345
141.9  94.199753  8.1590193
142  88.315402  8.159004
142.1  85.423075  8.1589883
142.2  70.206333  8.1589725
142.3  85.703036  8.1589564
142.4  99.991138  8.1589402
142.5  96.970178  8.1589237
142.6  102.83867  8.1589069
142.7  100.90036  8.15889
142.8  109.96622  8.1588728
142.9  136.85297  8.1588554
143  105.24932  8.1588378
143.1  126.57164  8.15882
143.2  113.71439  8.158802
143.3  134.27203  8.1587837
143.4  181.99413  8.1587653
143.5  150.05503  8.1587466
143.6  235.58404  8.1587277
143.7  265.58611  8.1587085
143.8  280.73003  8.1586892
143.9  315.44421  8.1586696
144  366.08065  8.1586499
144.1  415.92744  8.1586299
144.2  530.65669  8.1586097
144.3  749.10075  8.1585893
144.4  1040.3318  8.1585687
144.5  1444.9365  8.1585478
144.6  2230.447  8.1585268
144.7  3573.6789  8.1585055
144.8  5476.8464  8.158484
144.9  8336.8893  8.1584624
145  11309.392  8.1584405
145.1  13505.237  8.1584184
145.2  14137.225  8.158396
145.3  12830.621  8.1583735
145.4  9742.9007  8.1583508
145.5  6311.4688  8.1583278
145.6  3562.9507  8.1583047
145.7  1848.0885  8.1582813
145.8  1153.4135  8.1582578
145.9  727.89278  8.158234
146  571.19708  8.15821
146.1  491.57552  8.1581858
146.2  477.5722  8.1581614
146.3  535.00789  8.1581368
146.4  504.69242  8.158112
146.5  501.57054  8.158087
146.6  494.95765  8.1580618
146.7  491.64177  8.1580364
146.8  454.52552  8.1580108
146.9  544.82143  8.1579849
147  528.7284  8.1579589
147.1  466.09204  8.1579327
147.2  460.83452  8.1579063
147.3  462.38653  8.1578796
147.4  449.99335  8.1578528
147.5  408.2747  8.1578258
147.6  347.1874  8.1577985
147.7  356.52908  8.1577711
147.8  309.51383  8.1577435
147.9  259.88295  8.1577156
148  198.93312  8.1576876
148.1  223.14506  8.1576594
148.2  157.35294  8.1576309
148.3  122.09236  8.1576023
148.4  151.15432  8.1575735
148.5  146.465  8.1575444
148.6  102.56332  8.1575152
148.7  106.82156  8.1574858
148.8  108.61259  8.1574562
148.9  101.24658  8.1574264
149  70.920278  8.1573964
149.1  55.58951  8.1573662
149.2  73.555662  8.1573358
149.3  53.084063  8.1573052
149.4  39.155525  8.1572744
149.5  53.362605  8.1572435
149.6  63.0554  8.1572123
149.7  71.335701  8.1571809
149.8  56.553217  8.1571494
149.9  46.554953  8.1571176
150  52.7768  8.1570857
150.1  44.027588  8.1570536
150.2  38.371937  8.1570213
150.3  43.864582  8.1569887
150.4  47.999518  8.156956
150.5  30.25298  8.1569232
150.6  35.048977  8.1568901
150.7  38.321752  8.1568568
150.8  53.008008  8.1568234
150.9  41.51675  8.1567897
151  39.666468  8.1567559
151.1  32.120872  8.1567219
151.2  31.389503  8.1566877
151.3  37.780725  8.1566533
151.4  43.114908  8.1566187
151.5  25.2145  8.1565839
151.6  28.132475  8.156549
151.7  44.770398  8.1565138
151.8  36.557207  8.1564785
151.9  31.882945  8.156443
152  49.089773  8.1564073
152.1  54.05516  8.1563714
152.2  18.361465  8.1563354
152.3  39.436808  8.1562991
152.4  43.988533  8.1562627
152.5  30.37037  8.1562261
152.6  39.396592  8.1561893
152.7  36.460508  8.1561523
152.8  24.476749  8.1561151
152.9  50.802803  8.1560778
153  49.380575  8.1560403
153.1  34.108643  8.1560026
153.2  48.803889  8.1559647
153.3  36.189548  8.1559266
153.4  34.369992  8.1558884
153.5  35.465937  8.15585
153.6  38.400488  8.1558114
153.7  57.029872  8.1557726
153.8  33.793175  8.1557336
153.9  34.97029  8.1556945
154  29.793663  8.1556552
154.1  37.75309  8.1556157
154.2  37.557833  8.155576
154.3  42.269597  8.1555362
154.4  22.585367  8.1554962
154.5  48.287613  8.155456
154.6  32.63745  8.1554156
154.7  24.48375  8.1553751
154.8  40.593268  8.1553343
154.9  38.104447  8.1552934
155  36.297872  8.1552524

