# Created by:        SpecsLab Prodigy, Version 4.84.1-r101483 
#
# XY-Serializer Export Settings:
#   Comment Prefix:           #
#   Output Meta Data:         yes
#   Energy Axis:              Kinetic Energy
#   Count Rate:               Counts per Second
#   Separate Scan Data:       no
#   Separate Channel Data:    no
#   External Channel Data:    yes
#   Transmission Function:    yes
#   Error Bar:                no
#   Operation Results:        yes
#   Time Zone Format:         UTC
#
# Group:                        L-serine pH 7 500 mM
#
# Region:                       O 1s 300
# Spectrum ID:                  643
# Acquisition Date:             03/12/26 08:11:55 UTC
# Analysis Method:              XPS
# Analyzer:                     Phoibos
# Analyzer Lens:                LargeArea:3.5kV
# Analyzer Slit:                5:7x20\B:open
# Scan Mode:                    FixedAnalyzerTransmission
# Curves/Scan:                  1
# Values/Curve:                 151
# Dwell Time:                   0.1
# Excitation Energy:            830
# Kinetic Energy:               290
# Pass Energy:                  10
# Bias Voltage:                 220
# Detector Voltage:             1920
# Eff. Workfunction:            0
# Source:                       Monochromator
# Comment:                      

# Cycle: 0
#
# Number of Scans: 3

# Cycle: 0, Curve: 0
#
# Acquisition Date:             03/12/26 08:11:55 UTC
# ColumnLabels:                 energy counts/s transmission
#
290  6774.9709  8.0163569
290.1  6448.5118  8.016224
290.2  6529.1668  8.0160911
290.3  6493.397  8.0159582
290.4  6308.4569  8.0158252
290.5  6273.8178  8.0156923
290.6  6135.2516  8.0155593
290.7  6057.8052  8.0154263
290.8  5870.8606  8.0152933
290.9  5782.5263  8.0151603
291  5754.8712  8.0150272
291.1  5695.4761  8.0148941
291.2  5722.3532  8.014761
291.3  5717.0769  8.0146279
291.4  5751.192  8.0144948
291.5  5758.1624  8.0143617
291.6  5545.0568  8.0142285
291.7  5534.4893  8.0140953
291.8  5425.6327  8.0139621
291.9  5478.1072  8.0138289
292  5518.5106  8.0136957
292.1  5492.2051  8.0135625
292.2  5495.2958  8.0134292
292.3  5458.715  8.0132959
292.4  5623.8609  8.0131626
292.5  5516.3823  8.0130293
292.6  5521.9478  8.012896
292.7  5469.1629  8.0127626
292.8  5730.2355  8.0126293
292.9  5731.9859  8.0124959
293  5601.3807  8.0123625
293.1  5909.0832  8.0122291
293.2  5965.348  8.0120956
293.3  5991.7444  8.0119622
293.4  5927.0094  8.0118287
293.5  5963.6121  8.0116952
293.6  6040.4268  8.0115617
293.7  6293.337  8.0114282
293.8  6170.457  8.0112947
293.9  6348.1623  8.0111611
294  6636.5521  8.0110275
294.1  6852.1742  8.010894
294.2  6731.8805  8.0107604
294.3  7164.9533  8.0106267
294.4  7666.7568  8.0104931
294.5  8443.4095  8.0103594
294.6  9457.3233  8.0102258
294.7  11221.419  8.0100921
294.8  13521.257  8.0099584
294.9  17739.112  8.0098247
295  23802.732  8.0096909
295.1  32128.918  8.0095572
295.2  41871.227  8.0094234
295.3  52451.966  8.0092896
295.4  61864.077  8.0091558
295.5  66058.314  8.009022
295.6  64778.683  8.0088882
295.7  57899.98  8.0087543
295.8  48449.677  8.0086205
295.9  39781.052  8.0084866
296  33963.783  8.0083527
296.1  32663.705  8.0082188
296.2  34978.069  8.0080848
296.3  39790.588  8.0079509
296.4  45539.741  8.0078169
296.5  52978.091  8.0076829
296.6  60985.563  8.0075489
296.7  69346.043  8.0074149
296.8  78248.893  8.0072809
296.9  87178.374  8.0071469
297  94850.235  8.0070128
297.1  101147.01  8.0068787
297.2  107011.34  8.0067446
297.3  110735.35  8.0066105
297.4  112696.29  8.0064764
297.5  112356.39  8.0063423
297.6  110254.26  8.0062081
297.7  104601.8  8.0060739
297.8  97184.111  8.0059398
297.9  89110.319  8.0058056
298  79610.325  8.0056713
298.1  70435.775  8.0055371
298.2  60265.532  8.0054029
298.3  50818.182  8.0052686
298.4  42809.624  8.0051343
298.5  35517.902  8.005
298.6  29118.431  8.0048657
298.7  24460.697  8.0047314
298.8  19985.762  8.004597
298.9  17376.601  8.0044627
299  14703.326  8.0043283
299.1  13328.896  8.0041939
299.2  11636.775  8.0040595
299.3  10530.393  8.0039251
299.4  9658.2535  8.0037907
299.5  9029.5293  8.0036562
299.6  8554.9625  8.0035218
299.7  7783.7347  8.0033873
299.8  7516.3535  8.0032528
299.9  7234.707  8.0031183
300  6911.7283  8.0029838
300.1  6677.049  8.0028492
300.2  6598.2186  8.0027147
300.3  6455.1493  8.0025801
300.4  6206.68  8.0024455
300.5  5958.6212  8.0023109
300.6  6205.4337  8.0021763
300.7  5953.6328  8.0020417
300.8  5682.6252  8.0019071
300.9  5856.5629  8.0017724
301  5811.9961  8.0016377
301.1  5822.3358  8.001503
301.2  5655.9097  8.0013683
301.3  5686.0567  8.0012336
301.4  5645.0311  8.0010989
301.5  5651.7881  8.0009642
301.6  5419.0675  8.0008294
301.7  5446.5213  8.0006946
301.8  5367.0024  8.0005598
301.9  5347.5864  8.000425
302  5552.3387  8.0002902
302.1  5347.1342  8.0001554
302.2  5260.9444  8.0000205
302.3  5457.3965  7.9998857
302.4  5379.0331  7.9997508
302.5  5210.1857  7.9996159
302.6  5383.0332  7.999481
302.7  5324.9473  7.9993461
302.8  5412.562  7.9992112
302.9  5307.4666  7.9990762
303  5233.7835  7.9989413
303.1  5393.5903  7.9988063
303.2  5317.7453  7.9986713
303.3  5347.5999  7.9985363
303.4  5206.3122  7.9984013
303.5  5155.8991  7.9982662
303.6  5155.5421  7.9981312
303.7  5273.3568  7.9979961
303.8  5254.029  7.9978611
303.9  5232.1642  7.997726
304  5174.9863  7.9975909
304.1  5218.0117  7.9974558
304.2  5159.6954  7.9973206
304.3  5353.9732  7.9971855
304.4  5378.1807  7.9970503
304.5  5023.2341  7.9969152
304.6  5240.4926  7.99678
304.7  5279.4957  7.9966448
304.8  5112.4334  7.9965096
304.9  5251.4651  7.9963744
305  5492.1386  7.9962391

