# Created by:        SpecsLab Prodigy, Version 4.84.1-r101483 
#
# XY-Serializer Export Settings:
#   Comment Prefix:           #
#   Output Meta Data:         yes
#   Energy Axis:              Kinetic Energy
#   Count Rate:               Counts per Second
#   Separate Scan Data:       no
#   Separate Channel Data:    no
#   External Channel Data:    yes
#   Transmission Function:    yes
#   Error Bar:                no
#   Operation Results:        yes
#   Time Zone Format:         UTC
#
# Group:                        L-serine pH 7 500 mM
#
# Region:                       O 1s ref
# Spectrum ID:                  650
# Acquisition Date:             03/12/26 09:12:40 UTC
# Analysis Method:              XPS
# Analyzer:                     Phoibos
# Analyzer Lens:                LargeArea:3.5kV
# Analyzer Slit:                5:7x20\B:open
# Scan Mode:                    FixedAnalyzerTransmission
# Curves/Scan:                  1
# Values/Curve:                 151
# Dwell Time:                   0.1
# Excitation Energy:            900
# Kinetic Energy:               360
# Pass Energy:                  20
# Bias Voltage:                 220
# Detector Voltage:             1920
# Eff. Workfunction:            0
# Source:                       Monochromator
# Comment:                      

# Cycle: 0
#
# Number of Scans: 1

# Cycle: 0, Curve: 0
#
# Acquisition Date:             03/12/26 09:12:40 UTC
# ColumnLabels:                 energy counts/s transmission
#
360  10549.869  16.44968
360.1  10513.698  16.449603
360.2  10644.652  16.449526
360.3  10510.146  16.449449
360.4  9766.9632  16.449371
360.5  9613.1575  16.449294
360.6  9326.9564  16.449217
360.7  9154.5497  16.449139
360.8  9252.363  16.449062
360.9  9231.6745  16.448985
361  9149.1197  16.448907
361.1  9199.5243  16.448829
361.2  9409.9214  16.448752
361.3  9427.6  16.448674
361.4  9814.9891  16.448596
361.5  9174.0079  16.448518
361.6  9329.4549  16.44844
361.7  9232.3094  16.448363
361.8  9197.1519  16.448285
361.9  9369.9032  16.448206
362  9671.7637  16.448128
362.1  9716.4664  16.44805
362.2  9263.0235  16.447972
362.3  9420.8427  16.447894
362.4  9521.3893  16.447815
362.5  9612.6994  16.447737
362.6  9707.8901  16.447658
362.7  10132.131  16.44758
362.8  9996.1814  16.447501
362.9  9978.2598  16.447423
363  10018.703  16.447344
363.1  10097.387  16.447265
363.2  10511.417  16.447187
363.3  10417.144  16.447108
363.4  10243.329  16.447029
363.5  11390.664  16.44695
363.6  11426.661  16.446871
363.7  11303.211  16.446792
363.8  12331.617  16.446713
363.9  13319.846  16.446634
364  14199.617  16.446554
364.1  15709.521  16.446475
364.2  18548.377  16.446396
364.3  22611.361  16.446316
364.4  27310.961  16.446237
364.5  33297.439  16.446158
364.6  40626.294  16.446078
364.7  48944.522  16.445998
364.8  58100.113  16.445919
364.9  65631.661  16.445839
365  69198.447  16.445759
365.1  69808.755  16.445679
365.2  67432.062  16.4456
365.3  63235.897  16.44552
365.4  57711.8  16.44544
365.5  52577.507  16.44536
365.6  48425.481  16.44528
365.7  48697.881  16.445199
365.8  53027.081  16.445119
365.9  57799.067  16.445039
366  67682.73  16.444959
366.1  77294.189  16.444878
366.2  89635.836  16.444798
366.3  101426.01  16.444718
366.4  115789.17  16.444637
366.5  129251.6  16.444556
366.6  141342.65  16.444476
366.7  151769.45  16.444395
366.8  164292.54  16.444314
366.9  170231.79  16.444234
367  174937.5  16.444153
367.1  175231.35  16.444072
367.2  175217.63  16.443991
367.3  167315.19  16.44391
367.4  160495.19  16.443829
367.5  147044.32  16.443748
367.6  132515.54  16.443667
367.7  118380.91  16.443586
367.8  103404.21  16.443504
367.9  89604.238  16.443423
368  75988.649  16.443342
368.1  65315.838  16.44326
368.2  55309.225  16.443179
368.3  44071.352  16.443097
368.4  36839.658  16.443016
368.5  31104.986  16.442934
368.6  26500.349  16.442852
368.7  23369.432  16.442771
368.8  22048.352  16.442689
368.9  19254.449  16.442607
369  16591.104  16.442525
369.1  15870.385  16.442443
369.2  14740.54  16.442361
369.3  14077.242  16.442279
369.4  13579.025  16.442197
369.5  12588.739  16.442115
369.6  11814.781  16.442033
369.7  11426.103  16.44195
369.8  11403.138  16.441868
369.9  11244.989  16.441786
370  10837.925  16.441703
370.1  10810.939  16.441621
370.2  10825.821  16.441538
370.3  10315.916  16.441456
370.4  9797.2581  16.441373
370.5  10362.771  16.441291
370.6  10236.805  16.441208
370.7  10084.754  16.441125
370.8  9643.856  16.441042
370.9  9925.9058  16.440959
371  9646.4821  16.440876
371.1  9639.3591  16.440793
371.2  9864.173  16.44071
371.3  9457.7274  16.440627
371.4  9690.9104  16.440544
371.5  9623.014  16.440461
371.6  9333.3106  16.440378
371.7  9070.7967  16.440295
371.8  9142.701  16.440211
371.9  9023.8756  16.440128
372  9130.2782  16.440044
372.1  9089.2662  16.439961
372.2  9119.9835  16.439877
372.3  9199.4703  16.439794
372.4  8858.8328  16.43971
372.5  8850.37  16.439626
372.6  9027.5159  16.439543
372.7  9155.6708  16.439459
372.8  9360.6296  16.439375
372.9  9142.0667  16.439291
373  9426.5412  16.439207
373.1  8820.6563  16.439123
373.2  9329.7968  16.439039
373.3  8945.8524  16.438955
373.4  9015.9797  16.438871
373.5  9231.7691  16.438787
373.6  9267.039  16.438703
373.7  9172.3353  16.438618
373.8  9026.3099  16.438534
373.9  8735.8502  16.438449
374  9461.9042  16.438365
374.1  8818.583  16.438281
374.2  9297.9895  16.438196
374.3  9424.2674  16.438111
374.4  8930.5382  16.438027
374.5  8690.9992  16.437942
374.6  8968.1878  16.437857
374.7  8830.4629  16.437772
374.8  9044.933  16.437688
374.9  8633.7954  16.437603
375  8832.758  16.437518

