# Created by:        SpecsLab Prodigy, Version 4.84.1-r101483 
#
# XY-Serializer Export Settings:
#   Comment Prefix:           #
#   Output Meta Data:         yes
#   Energy Axis:              Kinetic Energy
#   Count Rate:               Counts per Second
#   Separate Scan Data:       no
#   Separate Channel Data:    no
#   External Channel Data:    yes
#   Transmission Function:    yes
#   Error Bar:                no
#   Operation Results:        yes
#   Time Zone Format:         UTC
#
# Group:                        L-serine pH 7 500 mM
#
# Region:                       O 1s ref
# Spectrum ID:                  668
# Acquisition Date:             03/12/26 13:19:49 UTC
# Analysis Method:              XPS
# Analyzer:                     Phoibos
# Analyzer Lens:                LargeArea:3.5kV
# Analyzer Slit:                5:7x20\B:open
# Scan Mode:                    FixedAnalyzerTransmission
# Curves/Scan:                  1
# Values/Curve:                 151
# Dwell Time:                   0.1
# Excitation Energy:            900
# Kinetic Energy:               360
# Pass Energy:                  20
# Bias Voltage:                 220
# Detector Voltage:             1920
# Eff. Workfunction:            0
# Source:                       Monochromator
# Comment:                      after jet crash

# Cycle: 0
#
# Number of Scans: 1

# Cycle: 0, Curve: 0
#
# Acquisition Date:             03/12/26 13:19:49 UTC
# ColumnLabels:                 energy counts/s transmission
#
360  6490.5979  16.44968
360.1  6340.2083  16.449603
360.2  6362.5996  16.449526
360.3  6209.7065  16.449449
360.4  6318.4831  16.449371
360.5  6391.9049  16.449294
360.6  5648.541  16.449217
360.7  5838.3976  16.449139
360.8  5897.6128  16.449062
360.9  5770.392  16.448985
361  5265.6685  16.448907
361.1  5265.6656  16.448829
361.2  5709.4623  16.448752
361.3  5642.0842  16.448674
361.4  5464.3784  16.448596
361.5  5384.9382  16.448518
361.6  5622.9401  16.44844
361.7  5487.3893  16.448363
361.8  5743.5402  16.448285
361.9  5853.1535  16.448206
362  5559.3206  16.448128
362.1  5365.3089  16.44805
362.2  5569.5456  16.447972
362.3  5586.2118  16.447894
362.4  5838.955  16.447815
362.5  5533.8882  16.447737
362.6  6009.6671  16.447658
362.7  6024.0816  16.44758
362.8  5898.9396  16.447501
362.9  5954.1441  16.447423
363  5888.1084  16.447344
363.1  6251.1891  16.447265
363.2  6191.4168  16.447187
363.3  6750.9379  16.447108
363.4  6883.4136  16.447029
363.5  6624.4812  16.44695
363.6  6338.6855  16.446871
363.7  7093.3605  16.446792
363.8  7397.8837  16.446713
363.9  7449.5089  16.446634
364  8195.0864  16.446554
364.1  8252.7727  16.446475
364.2  9066.9819  16.446396
364.3  9466.9045  16.446316
364.4  11240.537  16.446237
364.5  13586.892  16.446158
364.6  16775.604  16.446078
364.7  21993.899  16.445998
364.8  28780.252  16.445919
364.9  36870.188  16.445839
365  45233.389  16.445759
365.1  52084.302  16.445679
365.2  57287.048  16.4456
365.3  56404.841  16.44552
365.4  52230.123  16.44544
365.5  47188.59  16.44536
365.6  41861.377  16.44528
365.7  39100.5  16.445199
365.8  39116.264  16.445119
365.9  42077.748  16.445039
366  48234.093  16.444959
366.1  56332.747  16.444878
366.2  62512.298  16.444798
366.3  71501.624  16.444718
366.4  80056.735  16.444637
366.5  86745.379  16.444556
366.6  95084.281  16.444476
366.7  98564.711  16.444395
366.8  102586.01  16.444314
366.9  105379.97  16.444234
367  106614.89  16.444153
367.1  105189.19  16.444072
367.2  101803.16  16.443991
367.3  94221.838  16.44391
367.4  88014.909  16.443829
367.5  79454.648  16.443748
367.6  70647.994  16.443667
367.7  62998.304  16.443586
367.8  54065.612  16.443504
367.9  45589.584  16.443423
368  37813.662  16.443342
368.1  32116.126  16.44326
368.2  26542.708  16.443179
368.3  21878.245  16.443097
368.4  19058.003  16.443016
368.5  16184.342  16.442934
368.6  14316.605  16.442852
368.7  13593.324  16.442771
368.8  11880.97  16.442689
368.9  11038.839  16.442607
369  10232.142  16.442525
369.1  8886.4017  16.442443
369.2  8869.5612  16.442361
369.3  8168.3464  16.442279
369.4  7877.8635  16.442197
369.5  7568.9135  16.442115
369.6  7299.6988  16.442033
369.7  6916.5888  16.44195
369.8  7067.7255  16.441868
369.9  7096.5559  16.441786
370  6858.3025  16.441703
370.1  6274.9897  16.441621
370.2  6330.3291  16.441538
370.3  6478.331  16.441456
370.4  6209.5243  16.441373
370.5  6044.6422  16.441291
370.6  5910.9511  16.441208
370.7  6443.3557  16.441125
370.8  5700.8938  16.441042
370.9  6030.3714  16.440959
371  6113.052  16.440876
371.1  6119.5492  16.440793
371.2  6139.9452  16.44071
371.3  5724.3432  16.440627
371.4  5974.2794  16.440544
371.5  5942.532  16.440461
371.6  5681.8186  16.440378
371.7  5746.6595  16.440295
371.8  5883.5359  16.440211
371.9  5703.0146  16.440128
372  5784.7102  16.440044
372.1  5735.65  16.439961
372.2  5527.9031  16.439877
372.3  5457.8518  16.439794
372.4  5393.4182  16.43971
372.5  5784.7038  16.439626
372.6  5915.4906  16.439543
372.7  5802.7977  16.439459
372.8  5809.6146  16.439375
372.9  5357.4633  16.439291
373  5543.8808  16.439207
373.1  5768.2907  16.439123
373.2  5721.3412  16.439039
373.3  5693.1654  16.438955
373.4  5696.6055  16.438871
373.5  5592.5766  16.438787
373.6  5346.4692  16.438703
373.7  5809.9348  16.438618
373.8  5658.0078  16.438534
373.9  5625.8394  16.438449
374  5685.2682  16.438365
374.1  5900.1058  16.438281
374.2  5427.0337  16.438196
374.3  5575.0351  16.438111
374.4  5910.0616  16.438027
374.5  5811.2799  16.437942
374.6  5586.9944  16.437857
374.7  5866.0087  16.437772
374.8  5727.3795  16.437688
374.9  5778.7298  16.437603
375  5508.56  16.437518

