# Created by:        SpecsLab Prodigy, Version 4.84.1-r101483 
#
# XY-Serializer Export Settings:
#   Comment Prefix:           #
#   Output Meta Data:         yes
#   Energy Axis:              Kinetic Energy
#   Count Rate:               Counts per Second
#   Separate Scan Data:       no
#   Separate Channel Data:    no
#   External Channel Data:    yes
#   Transmission Function:    yes
#   Error Bar:                no
#   Operation Results:        yes
#   Time Zone Format:         UTC
#
# Group:                        L-serine pH 7 500 mM
#
# Region:                       C 1s 250
# Spectrum ID:                  663
# Acquisition Date:             03/12/26 10:31:54 UTC
# Analysis Method:              XPS
# Analyzer:                     Phoibos
# Analyzer Lens:                LargeArea:3.5kV
# Analyzer Slit:                5:7x20\B:open
# Scan Mode:                    FixedAnalyzerTransmission
# Curves/Scan:                  1
# Values/Curve:                 251
# Dwell Time:                   0.1
# Excitation Energy:            540
# Kinetic Energy:               240
# Pass Energy:                  10
# Bias Voltage:                 220
# Detector Voltage:             1920
# Eff. Workfunction:            0
# Source:                       Monochromator
# Comment:                      

# Cycle: 0
#
# Number of Scans: 15

# Cycle: 0, Curve: 0
#
# Acquisition Date:             03/12/26 10:31:54 UTC
# ColumnLabels:                 energy counts/s transmission
#
240  29237.543  8.0797322
240.1  29463.096  8.0796135
240.2  29526.949  8.0794948
240.3  29476.1  8.079376
240.4  29469.685  8.0792572
240.5  29423.843  8.0791384
240.6  29595.436  8.0790195
240.7  29619.591  8.0789005
240.8  29657.971  8.0787816
240.9  29778.965  8.0786626
241  29811.356  8.0785435
241.1  29831.123  8.0784244
241.2  30038.906  8.0783053
241.3  30001.355  8.0781861
241.4  30076.853  8.0780669
241.5  30208.47  8.0779476
241.6  30221.752  8.0778283
241.7  30247.006  8.077709
241.8  30460.963  8.0775896
241.9  30331.54  8.0774702
242  30369.073  8.0773507
242.1  30349.938  8.0772312
242.2  30531.176  8.0771116
242.3  30412.346  8.0769921
242.4  30757.134  8.0768724
242.5  30758.183  8.0767528
242.6  30650.366  8.0766331
242.7  30883.287  8.0765133
242.8  30968.179  8.0763935
242.9  30795.867  8.0762737
243  31025.298  8.0761538
243.1  31064.66  8.0760339
243.2  31027.987  8.075914
243.3  31319.076  8.075794
243.4  31188.596  8.075674
243.5  31193.177  8.0755539
243.6  31219.869  8.0754338
243.7  31307.081  8.0753137
243.8  31313.233  8.0751935
243.9  31533.804  8.0750733
244  31573.988  8.074953
244.1  31582.382  8.0748327
244.2  31391.327  8.0747124
244.3  31380.879  8.074592
244.4  31587.621  8.0744716
244.5  31687.049  8.0743511
244.6  31928.705  8.0742306
244.7  31800.935  8.0741101
244.8  31835.814  8.0739895
244.9  32013.97  8.0738689
245  32115.721  8.0737483
245.1  32243.079  8.0736276
245.2  32177.916  8.0735069
245.3  31988.501  8.0733861
245.4  32017.275  8.0732653
245.5  32423.832  8.0731445
245.6  32208.704  8.0730236
245.7  32326.155  8.0729027
245.8  32322.001  8.0727817
245.9  32722.025  8.0726607
246  32636.768  8.0725397
246.1  32858.58  8.0724186
246.2  32680.831  8.0722975
246.3  32594.821  8.0721764
246.4  32704.208  8.0720552
246.5  32997.079  8.071934
246.6  32948.835  8.0718127
246.7  32979.911  8.0716914
246.8  33028.794  8.0715701
246.9  33118.402  8.0714487
247  33217.585  8.0713273
247.1  33301.866  8.0712059
247.2  33412.664  8.0710844
247.3  33554.378  8.0709629
247.4  33475.74  8.0708413
247.5  33432.04  8.0707197
247.6  33352.243  8.0705981
247.7  33320.452  8.0704764
247.8  33670.955  8.0703547
247.9  33755.984  8.070233
248  33523.69  8.0701112
248.1  33595.087  8.0699894
248.2  33856.192  8.0698675
248.3  33674.243  8.0697457
248.4  33747.338  8.0696237
248.5  33949.251  8.0695018
248.6  33900.577  8.0693798
248.7  34078.615  8.0692577
248.8  34306.954  8.0691357
248.9  34056.971  8.0690136
249  34171.857  8.0688914
249.1  34065.056  8.0687693
249.2  34102.923  8.068647
249.3  34298.481  8.0685248
249.4  34412.981  8.0684025
249.5  34693.105  8.0682802
249.6  34620.404  8.0681578
249.7  34645.306  8.0680354
249.8  34855.699  8.067913
249.9  34720.954  8.0677906
250  34639.386  8.0676681
250.1  34579.846  8.0675455
250.2  34477.799  8.067423
250.3  34866.73  8.0673003
250.4  34935.502  8.0671777
250.5  34989.505  8.067055
250.6  34863.942  8.0669323
250.7  34991.249  8.0668096
250.8  35047.871  8.0666868
250.9  35138.595  8.066564
251  35074.288  8.0664411
251.1  35077.97  8.0663182
251.2  35436.709  8.0661953
251.3  35281.347  8.0660724
251.4  35217.572  8.0659494
251.5  35332.473  8.0658264
251.6  35451.679  8.0657033
251.7  35581.018  8.0655802
251.8  35302.867  8.0654571
251.9  35541.251  8.0653339
252  35993.662  8.0652107
252.1  35738.828  8.0650875
252.2  35668.287  8.0649642
252.3  35956.955  8.0648409
252.4  35753.299  8.0647176
252.5  35788.43  8.0645942
252.6  36163.446  8.0644708
252.7  36123.314  8.0643474
252.8  36212.998  8.0642239
252.9  36393.007  8.0641004
253  35912.186  8.0639769
253.1  36014.489  8.0638533
253.2  36485.909  8.0637297
253.3  36437.22  8.063606
253.4  36468.568  8.0634824
253.5  36522.172  8.0633587
253.6  36402.894  8.0632349
253.7  36506.275  8.0631112
253.8  36550.271  8.0629873
253.9  36764.165  8.0628635
254  36524.674  8.0627396
254.1  36806.839  8.0626157
254.2  36925.463  8.0624918
254.3  37180.229  8.0623678
254.4  37097.503  8.0622438
254.5  37093.779  8.0621198
254.6  37536.78  8.0619957
254.7  37456.729  8.0618716
254.8  37548.507  8.0617474
254.9  37553.611  8.0616233
255  37678.462  8.0614991
255.1  37793.351  8.0613748
255.2  37966.188  8.0612506
255.3  38585.901  8.0611263
255.4  39182.457  8.0610019
255.5  39419.346  8.0608776
255.6  40170.739  8.0607532
255.7  40242.877  8.0606287
255.8  40589.69  8.0605043
255.9  40991.589  8.0603798
256  41207.994  8.0602552
256.1  41561.95  8.0601307
256.2  41515.837  8.0600061
256.3  41230.917  8.0598815
256.4  41309.333  8.0597568
256.5  41101.701  8.0596321
256.6  41088.553  8.0595074
256.7  40631.178  8.0593827
256.8  40319.251  8.0592579
256.9  40253.615  8.0591331
257  40776.382  8.0590082
257.1  40877.319  8.0588833
257.2  41096.391  8.0587584
257.3  41947.658  8.0586335
257.4  42329.661  8.0585085
257.5  43050.999  8.0583835
257.6  43942.189  8.0582585
257.7  44572.051  8.0581334
257.8  45120.61  8.0580083
257.9  45618.739  8.0578832
258  45554.971  8.057758
258.1  45710.439  8.0576328
258.2  45772.362  8.0575076
258.3  45313.263  8.0573823
258.4  44469.089  8.057257
258.5  43880.089  8.0571317
258.6  43170.407  8.0570064
258.7  42172.03  8.056881
258.8  41619.459  8.0567556
258.9  41191.716  8.0566301
259  40984.263  8.0565047
259.1  40454.828  8.0563792
259.2  40104.145  8.0562536
259.3  39990.778  8.0561281
259.4  39974.027  8.0560025
259.5  39866.89  8.0558769
259.6  39958.957  8.0557512
259.7  40078.396  8.0556255
259.8  40039.895  8.0554998
259.9  39773.947  8.0553741
260  39836.75  8.0552483
260.1  40016.268  8.0551225
260.2  39925.599  8.0549966
260.3  40011.875  8.0548708
260.4  40010.774  8.0547449
260.5  39954.51  8.054619
260.6  40145.165  8.054493
260.7  40389.409  8.054367
260.8  40130.929  8.054241
260.9  40364.01  8.054115
261  40176.29  8.0539889
261.1  40314.134  8.0538628
261.2  40380.246  8.0537366
261.3  40453.615  8.0536105
261.4  40659.936  8.0534843
261.5  40682.995  8.0533581
261.6  40775.041  8.0532318
261.7  40783.079  8.0531055
261.8  40703.032  8.0529792
261.9  40560.656  8.0528529
262  40961.618  8.0527265
262.1  40619.219  8.0526001
262.2  40756.581  8.0524737
262.3  40966.788  8.0523472
262.4  40887.49  8.0522208
262.5  41023.438  8.0520942
262.6  41118.417  8.0519677
262.7  41023.47  8.0518411
262.8  41354.608  8.0517145
262.9  41030.965  8.0515879
263  41170.308  8.0514612
263.1  41215.266  8.0513346
263.2  41362.723  8.0512078
263.3  41284.165  8.0510811
263.4  41189.045  8.0509543
263.5  41393.437  8.0508275
263.6  41280.352  8.0507007
263.7  41496.282  8.0505738
263.8  41546.536  8.050447
263.9  41469.007  8.05032
264  41613.982  8.0501931
264.1  41484.08  8.0500661
264.2  41512.61  8.0499391
264.3  41875.47  8.0498121
264.4  41936.587  8.0496851
264.5  41852.167  8.049558
264.6  41997.623  8.0494309
264.7  41925.08  8.0493037
264.8  41873.853  8.0491766
264.9  41773.773  8.0490494
265  42075.778  8.0489221

