# Created by:        SpecsLab Prodigy, Version 4.84.1-r101483 
#
# XY-Serializer Export Settings:
#   Comment Prefix:           #
#   Output Meta Data:         yes
#   Energy Axis:              Kinetic Energy
#   Count Rate:               Counts per Second
#   Separate Scan Data:       no
#   Separate Channel Data:    no
#   External Channel Data:    yes
#   Transmission Function:    yes
#   Error Bar:                no
#   Operation Results:        yes
#   Time Zone Format:         UTC
#
# Group:                        L-serine pH 7 500 mM
#
# Region:                       VBM
# Spectrum ID:                  639
# Acquisition Date:             03/12/26 07:44:40 UTC
# Analysis Method:              XPS
# Analyzer:                     Phoibos
# Analyzer Lens:                LargeArea:3.5kV
# Analyzer Slit:                5:7x20\B:open
# Scan Mode:                    FixedAnalyzerTransmission
# Curves/Scan:                  1
# Values/Curve:                 251
# Dwell Time:                   0.1
# Excitation Energy:            690
# Kinetic Energy:               670
# Pass Energy:                  10
# Bias Voltage:                 220
# Detector Voltage:             1920
# Eff. Workfunction:            0
# Source:                       Monochromator
# Comment:                      

# Cycle: 0
#
# Number of Scans: 2

# Cycle: 0, Curve: 0
#
# Acquisition Date:             03/12/26 07:44:40 UTC
# ColumnLabels:                 energy counts/s transmission
#
670  241.26498  7.5034334
670.1  264.59435  7.5033082
670.2  236.94175  7.5031831
670.3  270.17267  7.503058
670.4  309.69914  7.5029329
670.5  228.80458  7.5028078
670.6  241.87285  7.5026827
670.7  263.59684  7.5025576
670.8  243.98096  7.5024325
670.9  282.9232  7.5023075
671  248.61072  7.5021824
671.1  239.80666  7.5020573
671.2  234.38312  7.5019323
671.3  203.97317  7.5018072
671.4  255.50848  7.5016822
671.5  227.98604  7.5015572
671.6  223.74456  7.5014321
671.7  211.88838  7.5013071
671.8  192.92439  7.5011821
671.9  181.13398  7.5010571
672  161.75114  7.5009321
672.1  184.80712  7.5008071
672.2  173.69332  7.5006821
672.3  179.66918  7.5005571
672.4  135.78937  7.5004322
672.5  195.90748  7.5003072
672.6  157.11919  7.5001822
672.7  164.43928  7.5000573
672.8  172.73944  7.4999324
672.9  167.34876  7.4998074
673  142.59498  7.4996825
673.1  145.8816  7.4995576
673.2  158.04253  7.4994326
673.3  192.77809  7.4993077
673.4  183.68987  7.4991828
673.5  139.62501  7.4990579
673.6  174.63939  7.4989331
673.7  158.20432  7.4988082
673.8  187.63182  7.4986833
673.9  184.31976  7.4985584
674  189.73929  7.4984336
674.1  212.17552  7.4983087
674.2  209.51734  7.4981839
674.3  188.81626  7.498059
674.4  221.48299  7.4979342
674.5  257.34685  7.4978094
674.6  294.27089  7.4976846
674.7  251.78176  7.4975597
674.8  290.7505  7.4974349
674.9  364.46188  7.4973101
675  375.50014  7.4971854
675.1  405.80064  7.4970606
675.2  449.58816  7.4969358
675.3  427.52178  7.496811
675.4  472.66864  7.4966863
675.5  522.60228  7.4965615
675.6  692.76479  7.4964368
675.7  604.37152  7.496312
675.8  672.73872  7.4961873
675.9  775.82101  7.4960626
676  787.89896  7.4959378
676.1  716.67632  7.4958131
676.2  841.74953  7.4956884
676.3  901.84558  7.4955637
676.4  791.24648  7.495439
676.5  899.37437  7.4953143
676.6  956.72757  7.4951896
676.7  984.88706  7.495065
676.8  945.70372  7.4949403
676.9  913.06211  7.4948156
677  998.10718  7.494691
677.1  974.2613  7.4945664
677.2  1024.635  7.4944417
677.3  989.92877  7.4943171
677.4  1025.4858  7.4941925
677.5  929.57173  7.4940678
677.6  812.37151  7.4939432
677.7  918.96779  7.4938186
677.8  885.64696  7.493694
677.9  818.51501  7.4935694
678  738.45432  7.4934449
678.1  706.74391  7.4933203
678.2  757.68019  7.4931957
678.3  669.8976  7.4930711
678.4  712.94446  7.4929466
678.5  684.09178  7.492822
678.6  687.01397  7.4926975
678.7  867.47503  7.492573
678.8  956.16174  7.4924484
678.9  1034.6151  7.4923239
679  1165.5001  7.4921994
679.1  1269.8809  7.4920749
679.2  1535.4216  7.4919504
679.3  1748.6056  7.4918259
679.4  1680.5067  7.4917014
679.5  1774.6499  7.4915769
679.6  1890.6727  7.4914525
679.7  1866.722  7.491328
679.8  1887.5729  7.4912035
679.9  2005.5905  7.4910791
680  2047.4823  7.4909547
680.1  2099.4283  7.4908302
680.2  1849.061  7.4907058
680.3  1794.4482  7.4905814
680.4  1813.3866  7.4904569
680.5  1882.2585  7.4903325
680.6  1837.366  7.4902081
680.7  1722.6165  7.4900837
680.8  1737.6313  7.4899593
680.9  1781.9574  7.489835
681  1886.4489  7.4897106
681.1  1856.3362  7.4895862
681.2  1839.2997  7.4894619
681.3  2020.9926  7.4893375
681.4  2114.5587  7.4892132
681.5  2060.4964  7.4890888
681.6  2160.4342  7.4889645
681.7  2184.43  7.4888402
681.8  2001.0258  7.4887158
681.9  1723.3949  7.4885915
682  1531.6525  7.4884672
682.1  1420.3738  7.4883429
682.2  1446.4062  7.4882186
682.3  1283.657  7.4880943
682.4  1409.3775  7.4879701
682.5  1649.2805  7.4878458
682.6  1819.8306  7.4877215
682.7  1898.3813  7.4875973
682.8  1819.0124  7.487473
682.9  2066.1623  7.4873488
683  1999.0291  7.4872245
683.1  1950.4528  7.4871003
683.2  1906.9213  7.4869761
683.3  1981.2144  7.4868519
683.4  1885.9096  7.4867277
683.5  1731.3772  7.4866035
683.6  1668.7218  7.4864793
683.7  1544.4612  7.4863551
683.8  1287.783  7.4862309
683.9  1100.6402  7.4861067
684  915.90119  7.4859825
684.1  683.10761  7.4858584
684.2  632.81967  7.4857342
684.3  419.01407  7.4856101
684.4  391.96077  7.4854859
684.5  364.11118  7.4853618
684.6  272.71835  7.4852377
684.7  196.57863  7.4851136
684.8  145.01705  7.4849895
684.9  115.83225  7.4848653
685  65.016806  7.4847413
685.1  128.08034  7.4846172
685.2  56.71424  7.4844931
685.3  87.46082  7.484369
685.4  57.140084  7.4842449
685.5  48.496701  7.4841209
685.6  40.94909  7.4839968
685.7  42.246925  7.4838728
685.8  40.096525  7.4837487
685.9  18.749539  7.4836247
686  39.459906  7.4835006
686.1  17.441455  7.4833766
686.2  11.792  7.4832526
686.3  8.761525  7.4831286
686.4  14.310575  7.4830046
686.5  9.8383  7.4828806
686.6  4.99555  7.4827566
686.7  2.56605  7.4826326
686.8  9.9109  7.4825087
686.9  13.58709  7.4823847
687  12.39991  7.4822607
687.1  7.9875  7.4821368
687.2  11.24225  7.4820128
687.3  4.74025  7.4818889
687.4  19.136915  7.481765
687.5  20.4809  7.481641
687.6  20.557285  7.4815171
687.7  13.3697  7.4813932
687.8  17.2217  7.4812693
687.9  14.28095  7.4811454
688  8.67175  7.4810215
688.1  16.4047  7.4808976
688.2  18.3407  7.4807737
688.3  11.53987  7.4806499
688.4  5.21298  7.480526
688.5  11.4507  7.4804022
688.6  1.19995  7.4802783
688.7  4.18295  7.4801545
688.8  4.2342  7.4800306
688.9  1.58285  7.4799068
689  4.868619  7.479783
689.1  16.791276  7.4796592
689.2  20.468245  7.4795354
689.3  14.40856  7.4794116
689.4  16.663715  7.4792878
689.5  12.74048  7.479164
689.6  8.114455  7.4790402
689.7  0.94465  7.4789164
689.8  2.90215  7.4787926
689.9  5.8979  7.4786689
690  1.19995  7.4785451
690.1  10.2515  7.4784214
690.2  4.82935  7.4782977
690.3  4.91915  7.4781739
690.4  0  7.4780502
690.5  1.3661  7.4779265
690.6  11.96195  7.4778028
690.7  14.61265  7.4776791
690.8  11.7617  7.4775554
690.9  2.05105  7.4774317
691  5.89345  7.477308
691.1  4.8256  7.4771843
691.2  8.12335  7.4770606
691.3  12.906625  7.476937
691.4  4.10214  7.4768133
691.5  9.276485  7.4766897
691.6  3.19975  7.476566
691.7  6.92789  7.4764424
691.8  5.25526  7.4763188
691.9  7.05105  7.4761951
692  5.63815  7.4760715
692.1  0.0468  7.4759479
692.2  0  7.4758243
692.3  0  7.4757007
692.4  0  7.4755771
692.5  8.3704  7.4754536
692.6  1.6296  7.47533
692.7  0.2085  7.4752064
692.8  6.41735  7.4750829
692.9  10.72345  7.4749593
693  2.9913  7.4748358
693.1  9.44714  7.4747122
693.2  5.21226  7.4745887
693.3  2.65135  7.4744652
693.4  6.2808  7.4743416
693.5  7.39165  7.4742181
693.6  8.2465  7.4740946
693.7  9.9577  7.4739711
693.8  0.472  7.4738476
693.9  2.13637  7.4737242
694  12.732245  7.4736007
694.1  5.131385  7.4734772
694.2  7.8643  7.4733537
694.3  6.148715  7.4732303
694.4  8.118885  7.4731068
694.5  6.15765  7.4729834
694.6  1.71045  7.47286
694.7  6.57905  7.4727365
694.8  3.42095  7.4726131
694.9  0  7.4724897
695  2.4814  7.4723663

