# Created by:        SpecsLab Prodigy, Version 4.84.1-r101483 
#
# XY-Serializer Export Settings:
#   Comment Prefix:           #
#   Output Meta Data:         yes
#   Energy Axis:              Kinetic Energy
#   Count Rate:               Counts per Second
#   Separate Scan Data:       no
#   Separate Channel Data:    no
#   External Channel Data:    yes
#   Transmission Function:    yes
#   Error Bar:                no
#   Operation Results:        yes
#   Time Zone Format:         UTC
#
# Group:                        L-serine pH 7 500 mM
#
# Region:                       C 1s 200
# Spectrum ID:                  617
# Acquisition Date:             03/12/26 05:43:19 UTC
# Analysis Method:              XPS
# Analyzer:                     Phoibos
# Analyzer Lens:                LargeArea:3.5kV
# Analyzer Slit:                5:7x20\B:open
# Scan Mode:                    FixedAnalyzerTransmission
# Curves/Scan:                  1
# Values/Curve:                 251
# Dwell Time:                   0.1
# Excitation Energy:            490
# Kinetic Energy:               190
# Pass Energy:                  10
# Bias Voltage:                 220
# Detector Voltage:             1920
# Eff. Workfunction:            0
# Source:                       Monochromator
# Comment:                      

# Cycle: 0
#
# Number of Scans: 12

# Cycle: 0, Curve: 0
#
# Acquisition Date:             03/12/26 05:43:19 UTC
# ColumnLabels:                 energy counts/s transmission
#
190  689.8287  8.1321036
190.1  704.20383  8.132017
190.2  650.89639  8.1319304
190.3  693.13454  8.1318436
190.4  710.67856  8.1317568
190.5  703.85045  8.1316698
190.6  688.89462  8.1315828
190.7  699.45477  8.1314957
190.8  689.64508  8.1314085
190.9  749.8328  8.1313212
191  718.03017  8.1312338
191.1  739.27659  8.1311463
191.2  706.40525  8.1310587
191.3  698.06017  8.1309711
191.4  733.54231  8.1308833
191.5  725.41374  8.1307955
191.6  762.20867  8.1307075
191.7  743.22929  8.1306195
191.8  749.89555  8.1305313
191.9  749.51155  8.1304431
192  766.25709  8.1303548
192.1  788.27558  8.1302664
192.2  772.88243  8.1301779
192.3  761.29005  8.1300893
192.4  763.71834  8.1300006
192.5  770.96451  8.1299119
192.6  754.91451  8.129823
192.7  787.18994  8.1297341
192.8  787.81521  8.129645
192.9  777.99745  8.1295559
193  762.01134  8.1294667
193.1  797.44367  8.1293774
193.2  789.96952  8.129288
193.3  822.45758  8.1291985
193.4  797.78801  8.1291089
193.5  786.57808  8.1290192
193.6  789.69857  8.1289295
193.7  822.21381  8.1288396
193.8  804.082  8.1287497
193.9  795.65366  8.1286597
194  838.10177  8.1285696
194.1  851.5398  8.1284794
194.2  877.26791  8.1283891
194.3  875.85772  8.1282987
194.4  892.53797  8.1282082
194.5  885.08769  8.1281177
194.6  836.99959  8.1280271
194.7  840.46148  8.1279363
194.8  817.86369  8.1278455
194.9  823.8097  8.1277546
195  845.03013  8.1276636
195.1  866.95383  8.1275726
195.2  869.65155  8.1274814
195.3  873.1293  8.1273902
195.4  831.79581  8.1272988
195.5  851.60736  8.1272074
195.6  888.97997  8.1271159
195.7  855.72392  8.1270243
195.8  871.95141  8.1269326
195.9  902.84413  8.1268409
196  892.38664  8.126749
196.1  851.21657  8.1266571
196.2  882.90203  8.1265651
196.3  909.73576  8.126473
196.4  943.06642  8.1263808
196.5  949.69509  8.1262885
196.6  915.10301  8.1261962
196.7  899.63585  8.1261037
196.8  928.64112  8.1260112
196.9  898.35078  8.1259186
197  873.16649  8.1258259
197.1  896.99303  8.1257331
197.2  910.55581  8.1256403
197.3  900.3537  8.1255473
197.4  925.39808  8.1254543
197.5  971.55042  8.1253612
197.6  949.48355  8.125268
197.7  915.09123  8.1251747
197.8  890.11183  8.1250813
197.9  949.12076  8.1249879
198  913.62786  8.1248944
198.1  887.65788  8.1248008
198.2  946.76238  8.1247071
198.3  966.60472  8.1246133
198.4  929.1512  8.1245194
198.5  914.43199  8.1244255
198.6  929.22162  8.1243315
198.7  944.48783  8.1242374
198.8  942.64791  8.1241432
198.9  966.816  8.1240489
199  961.62095  8.1239546
199.1  930.16442  8.1238602
199.2  941.03884  8.1237657
199.3  981.59949  8.1236711
199.4  966.05901  8.1235764
199.5  986.86579  8.1234817
199.6  984.70236  8.1233868
199.7  973.65634  8.1232919
199.8  968.90601  8.1231969
199.9  991.73392  8.1231019
200  989.40894  8.1230067
200.1  1048.0441  8.1229115
200.2  1075.5347  8.1228162
200.3  1058.3572  8.1227208
200.4  1045.8744  8.1226253
200.5  979.76885  8.1225298
200.6  999.70321  8.1224341
200.7  998.19236  8.1223384
200.8  994.77114  8.1222426
200.9  1033.3123  8.1221468
201  1029.2121  8.1220508
201.1  1056.1718  8.1219548
201.2  1078.3955  8.1218587
201.3  1062.9609  8.1217625
201.4  1094.9444  8.1216663
201.5  1052.8319  8.1215699
201.6  1066.9203  8.1214735
201.7  1118.8267  8.121377
201.8  1086.9467  8.1212805
201.9  1083.6389  8.1211838
202  1157.142  8.1210871
202.1  1147.1518  8.1209903
202.2  1196.7343  8.1208934
202.3  1214.1388  8.1207964
202.4  1220.649  8.1206994
202.5  1293.9751  8.1206023
202.6  1338.7064  8.1205051
202.7  1410.3918  8.1204079
202.8  1524.8266  8.1203105
202.9  1677.0224  8.1202131
203  1764.8301  8.1201156
203.1  1925.2935  8.1200181
203.2  1985.7624  8.1199204
203.3  2161.8515  8.1198227
203.4  2267.8828  8.1197249
203.5  2309.5912  8.119627
203.6  2422.4597  8.1195291
203.7  2377.4172  8.1194311
203.8  2402.2576  8.119333
203.9  2302.6416  8.1192348
204  2235.4759  8.1191366
204.1  2043.0936  8.1190382
204.2  1988.9488  8.1189398
204.3  1956.6472  8.1188414
204.4  1918.7281  8.1187428
204.5  1988.7837  8.1186442
204.6  2081.801  8.1185455
204.7  2264.2628  8.1184468
204.8  2417.2187  8.1183479
204.9  2674.7174  8.118249
205  2957.9622  8.11815
205.1  3106.14  8.118051
205.2  3401.84  8.1179518
205.3  3603.0626  8.1178526
205.4  3785.7033  8.1177533
205.5  3890.3607  8.117654
205.6  3799.781  8.1175545
205.7  3743.9276  8.117455
205.8  3653.2806  8.1173555
205.9  3330.1908  8.1172558
206  3104.1351  8.1171561
206.1  2861.1565  8.1170563
206.2  2626.0524  8.1169565
206.3  2342.8947  8.1168565
206.4  2106.0451  8.1167565
206.5  1911.3686  8.1166564
206.6  1762.5805  8.1165563
206.7  1686.3556  8.1164561
206.8  1601.1227  8.1163558
206.9  1531.1336  8.1162554
207  1510.221  8.116155
207.1  1518.8248  8.1160545
207.2  1535.9638  8.1159539
207.3  1555.1698  8.1158532
207.4  1479.2723  8.1157525
207.5  1472.8269  8.1156517
207.6  1455.4149  8.1155509
207.7  1430.6366  8.1154499
207.8  1452.7592  8.1153489
207.9  1455.3225  8.1152479
208  1444.0286  8.1151467
208.1  1445.698  8.1150455
208.2  1459.7441  8.1149442
208.3  1497.5262  8.1148429
208.4  1529.4193  8.1147415
208.5  1497.2624  8.11464
208.6  1523.0829  8.1145384
208.7  1495.7618  8.1144368
208.8  1482.0843  8.1143351
208.9  1499.2085  8.1142333
209  1491.7043  8.1141315
209.1  1499.6401  8.1140296
209.2  1525.5836  8.1139276
209.3  1502.7069  8.1138255
209.4  1461.4708  8.1137234
209.5  1504.9622  8.1136213
209.6  1563.88  8.113519
209.7  1552.928  8.1134167
209.8  1508.589  8.1133143
209.9  1501.3577  8.1132118
210  1520.2499  8.1131093
210.1  1570.0387  8.1130067
210.2  1568.8823  8.1129041
210.3  1526.607  8.1128014
210.4  1559.1197  8.1126986
210.5  1581.9441  8.1125957
210.6  1546.1391  8.1124928
210.7  1564.8458  8.1123898
210.8  1583.8631  8.1122867
210.9  1592.5862  8.1121836
211  1642.6722  8.1120804
211.1  1593.4562  8.1119771
211.2  1559.8632  8.1118738
211.3  1625.4435  8.1117704
211.4  1642.1726  8.111667
211.5  1656.9078  8.1115634
211.6  1623.5256  8.1114598
211.7  1659.7572  8.1113562
211.8  1715.8007  8.1112525
211.9  1682.3195  8.1111487
212  1641.1692  8.1110448
212.1  1682.6342  8.1109409
212.2  1695.5764  8.1108369
212.3  1674.7027  8.1107328
212.4  1650.9495  8.1106287
212.5  1656.7457  8.1105245
212.6  1687.5231  8.1104203
212.7  1685.7024  8.110316
212.8  1724.9335  8.1102116
212.9  1724.3267  8.1101072
213  1696.2706  8.1100027
213.1  1726.975  8.1098981
213.2  1762.5858  8.1097934
213.3  1738.3993  8.1096887
213.4  1697.007  8.109584
213.5  1735.0312  8.1094792
213.6  1773.2766  8.1093743
213.7  1724.3589  8.1092693
213.8  1800.4675  8.1091643
213.9  1758.182  8.1090592
214  1790.2188  8.108954
214.1  1801.4  8.1088488
214.2  1775.8178  8.1087436
214.3  1816.173  8.1086382
214.4  1888.546  8.1085328
214.5  1845.9156  8.1084274
214.6  1792.4396  8.1083218
214.7  1815.9247  8.1082162
214.8  1872.9967  8.1081106
214.9  1884.4745  8.1080049
215  1907.5245  8.1078991

