# Created by:        SpecsLab Prodigy, Version 4.84.1-r101483 
#
# XY-Serializer Export Settings:
#   Comment Prefix:           #
#   Output Meta Data:         yes
#   Energy Axis:              Kinetic Energy
#   Count Rate:               Counts per Second
#   Separate Scan Data:       no
#   Separate Channel Data:    no
#   External Channel Data:    yes
#   Transmission Function:    yes
#   Error Bar:                no
#   Operation Results:        yes
#   Time Zone Format:         UTC
#
# Group:                        L-serine pH 7 500 mM
#
# Region:                       C 1s 150
# Spectrum ID:                  657
# Acquisition Date:             03/12/26 09:49:17 UTC
# Analysis Method:              XPS
# Analyzer:                     Phoibos
# Analyzer Lens:                LargeArea:3.5kV
# Analyzer Slit:                5:7x20\B:open
# Scan Mode:                    FixedAnalyzerTransmission
# Curves/Scan:                  1
# Values/Curve:                 251
# Dwell Time:                   0.1
# Excitation Energy:            440
# Kinetic Energy:               140
# Pass Energy:                  10
# Bias Voltage:                 220
# Detector Voltage:             1920
# Eff. Workfunction:            0
# Source:                       Monochromator
# Comment:                      swapped KBs - retake

# Cycle: 0
#
# Number of Scans: 15

# Cycle: 0, Curve: 0
#
# Acquisition Date:             03/12/26 09:49:17 UTC
# ColumnLabels:                 energy counts/s transmission
#
140  202.79213  8.1592688
140.1  220.70907  8.1592578
140.2  227.87723  8.1592465
140.3  209.89143  8.1592349
140.4  198.44133  8.1592232
140.5  224.07313  8.1592112
140.6  205.79526  8.1591989
140.7  192.04137  8.1591865
140.8  194.7453  8.1591738
140.9  211.80282  8.1591609
141  203.81644  8.1591478
141.1  201.7035  8.1591344
141.2  218.65322  8.1591208
141.3  211.13992  8.159107
141.4  207.3325  8.1590929
141.5  191.32192  8.1590787
141.6  197.09093  8.1590642
141.7  203.23317  8.1590495
141.8  211.38232  8.1590345
141.9  206.8596  8.1590193
142  212.07207  8.159004
142.1  227.08692  8.1589883
142.2  204.24737  8.1589725
142.3  200.95782  8.1589564
142.4  204.69782  8.1589402
142.5  205.67381  8.1589237
142.6  205.39851  8.1589069
142.7  211.45893  8.15889
142.8  203.14241  8.1588728
142.9  207.47555  8.1588554
143  213.48393  8.1588378
143.1  202.57027  8.15882
143.2  225.37113  8.158802
143.3  211.85373  8.1587837
143.4  216.79033  8.1587653
143.5  213.92911  8.1587466
143.6  218.80968  8.1587277
143.7  222.13919  8.1587085
143.8  213.28584  8.1586892
143.9  194.65804  8.1586696
144  206.79315  8.1586499
144.1  218.75392  8.1586299
144.2  217.16887  8.1586097
144.3  221.76691  8.1585893
144.4  189.84805  8.1585687
144.5  194.82973  8.1585478
144.6  224.54618  8.1585268
144.7  230.38203  8.1585055
144.8  216.66544  8.158484
144.9  218.68982  8.1584624
145  212.44868  8.1584405
145.1  223.85562  8.1584184
145.2  221.5408  8.158396
145.3  230.91766  8.1583735
145.4  239.22462  8.1583508
145.5  226.94114  8.1583278
145.6  213.81122  8.1583047
145.7  205.40193  8.1582813
145.8  211.00631  8.1582578
145.9  226.17308  8.158234
146  209.58551  8.15821
146.1  221.04819  8.1581858
146.2  212.73735  8.1581614
146.3  202.23925  8.1581368
146.4  208.93319  8.158112
146.5  216.81752  8.158087
146.6  200.86568  8.1580618
146.7  211.74187  8.1580364
146.8  217.48833  8.1580108
146.9  231.34336  8.1579849
147  216.47907  8.1579589
147.1  229.83991  8.1579327
147.2  230.04542  8.1579063
147.3  236.26751  8.1578796
147.4  229.31683  8.1578528
147.5  214.46056  8.1578258
147.6  211.91258  8.1577985
147.7  219.67701  8.1577711
147.8  215.85992  8.1577435
147.9  228.24482  8.1577156
148  244.51347  8.1576876
148.1  259.0971  8.1576594
148.2  234.59134  8.1576309
148.3  214.73087  8.1576023
148.4  202.94886  8.1575735
148.5  231.4226  8.1575444
148.6  234.87735  8.1575152
148.7  233.09329  8.1574858
148.8  236.88999  8.1574562
148.9  230.28335  8.1574264
149  229.76814  8.1573964
149.1  236.30241  8.1573662
149.2  225.83722  8.1573358
149.3  230.9067  8.1573052
149.4  218.95964  8.1572744
149.5  237.63535  8.1572435
149.6  222.19152  8.1572123
149.7  234.00319  8.1571809
149.8  231.53798  8.1571494
149.9  222.61413  8.1571176
150  243.14346  8.1570857
150.1  258.01063  8.1570536
150.2  228.75508  8.1570213
150.3  233.2137  8.1569887
150.4  256.39339  8.156956
150.5  240.46074  8.1569232
150.6  258.65693  8.1568901
150.7  263.51529  8.1568568
150.8  253.15356  8.1568234
150.9  268.01793  8.1567897
151  273.6738  8.1567559
151.1  263.31883  8.1567219
151.2  285.96993  8.1566877
151.3  302.05367  8.1566533
151.4  332.37425  8.1566187
151.5  376.33356  8.1565839
151.6  375.22287  8.156549
151.7  387.30931  8.1565138
151.8  420.12103  8.1564785
151.9  423.60289  8.156443
152  401.22283  8.1564073
152.1  385.18842  8.1563714
152.2  370.99602  8.1563354
152.3  375.01345  8.1562991
152.4  340.99454  8.1562627
152.5  333.01524  8.1562261
152.6  334.59615  8.1561893
152.7  357.05788  8.1561523
152.8  330.18473  8.1561151
152.9  349.62203  8.1560778
153  375.86474  8.1560403
153.1  393.65043  8.1560026
153.2  434.04741  8.1559647
153.3  448.27692  8.1559266
153.4  490.52294  8.1558884
153.5  503.48542  8.15585
153.6  518.60647  8.1558114
153.7  566.19853  8.1557726
153.8  571.92595  8.1557336
153.9  578.11351  8.1556945
154  566.77964  8.1556552
154.1  535.25946  8.1556157
154.2  514.54475  8.155576
154.3  460.96695  8.1555362
154.4  437.93742  8.1554962
154.5  399.89544  8.155456
154.6  357.88045  8.1554156
154.7  358.72201  8.1553751
154.8  320.35362  8.1553343
154.9  317.3051  8.1552934
155  298.526  8.1552524
155.1  304.03519  8.1552111
155.2  301.73339  8.1551697
155.3  294.58344  8.1551281
155.4  277.84486  8.1550863
155.5  291.54825  8.1550444
155.6  283.55958  8.1550023
155.7  254.98672  8.15496
155.8  271.3011  8.1549175
155.9  293.94484  8.1548749
156  291.8604  8.1548321
156.1  273.19323  8.1547891
156.2  272.66763  8.154746
156.3  279.16028  8.1547027
156.4  278.24921  8.1546592
156.5  274.6921  8.1546155
156.6  286.03683  8.1545717
156.7  300.99093  8.1545277
156.8  295.88726  8.1544836
156.9  289.10549  8.1544392
157  293.22945  8.1543947
157.1  298.87875  8.1543501
157.2  276.44882  8.1543052
157.3  286.8129  8.1542602
157.4  282.77  8.1542151
157.5  296.55713  8.1541697
157.6  276.5058  8.1541242
157.7  269.87104  8.1540786
157.8  312.57197  8.1540327
157.9  283.91702  8.1539867
158  288.82281  8.1539406
158.1  289.7503  8.1538943
158.2  296.95012  8.1538478
158.3  308.72236  8.1538011
158.4  297.02722  8.1537543
158.5  295.82292  8.1537073
158.6  287.38137  8.1536602
158.7  296.7868  8.1536128
158.8  279.98102  8.1535654
158.9  275.46953  8.1535177
159  274.64495  8.1534699
159.1  286.85731  8.153422
159.2  304.21325  8.1533739
159.3  317.60302  8.1533256
159.4  313.33694  8.1532771
159.5  296.8101  8.1532285
159.6  287.81457  8.1531798
159.7  306.04058  8.1531308
159.8  289.03081  8.1530817
159.9  291.60194  8.1530325
160  287.29875  8.1529831
160.1  286.8475  8.1529335
160.2  293.63731  8.1528838
160.3  303.25302  8.1528339
160.4  297.74384  8.1527839
160.5  306.24584  8.1527337
160.6  307.08555  8.1526834
160.7  295.11025  8.1526328
160.8  327.79053  8.1525822
160.9  311.85326  8.1525314
161  322.53294  8.1524804
161.1  315.36743  8.1524292
161.2  311.7522  8.1523779
161.3  311.84087  8.1523265
161.4  306.57778  8.1522749
161.5  310.92138  8.1522231
161.6  316.28797  8.1521712
161.7  309.29611  8.1521192
161.8  308.80953  8.1520669
161.9  326.38718  8.1520146
162  324.85339  8.151962
162.1  322.92083  8.1519094
162.2  308.10562  8.1518565
162.3  294.64184  8.1518035
162.4  303.90336  8.1517504
162.5  296.21575  8.1516971
162.6  324.48033  8.1516437
162.7  319.59272  8.1515901
162.8  320.06158  8.1515363
162.9  355.81955  8.1514824
163  328.05771  8.1514284
163.1  342.6365  8.1513742
163.2  320.81496  8.1513198
163.3  324.16047  8.1512653
163.4  337.12966  8.1512107
163.5  336.95323  8.1511559
163.6  324.62752  8.1511009
163.7  329.10964  8.1510458
163.8  342.91258  8.1509906
163.9  340.45562  8.1509352
164  342.62711  8.1508796
164.1  361.51634  8.1508239
164.2  361.05938  8.1507681
164.3  358.59317  8.1507121
164.4  337.14375  8.150656
164.5  341.95096  8.1505997
164.6  376.54642  8.1505433
164.7  344.42419  8.1504867
164.8  331.24844  8.15043
164.9  354.00813  8.1503731
165  345.76325  8.1503161

