# Created by:        SpecsLab Prodigy, Version 4.84.1-r101483 
#
# XY-Serializer Export Settings:
#   Comment Prefix:           #
#   Output Meta Data:         yes
#   Energy Axis:              Kinetic Energy
#   Count Rate:               Counts per Second
#   Separate Scan Data:       no
#   Separate Channel Data:    no
#   External Channel Data:    yes
#   Transmission Function:    yes
#   Error Bar:                no
#   Operation Results:        yes
#   Time Zone Format:         UTC
#
# Group:                        L-serine pH 7 500 mM
#
# Region:                       VBM
# Spectrum ID:                  656
# Acquisition Date:             03/12/26 09:54:24 UTC
# Analysis Method:              XPS
# Analyzer:                     Phoibos
# Analyzer Lens:                LargeArea:3.5kV
# Analyzer Slit:                5:7x20\B:open
# Scan Mode:                    FixedAnalyzerTransmission
# Curves/Scan:                  1
# Values/Curve:                 251
# Dwell Time:                   0.1
# Excitation Energy:            440
# Kinetic Energy:               420
# Pass Energy:                  10
# Bias Voltage:                 220
# Detector Voltage:             1920
# Eff. Workfunction:            0
# Source:                       Monochromator
# Comment:                      

# Cycle: 0
#
# Number of Scans: 2

# Cycle: 0, Curve: 0
#
# Acquisition Date:             03/12/26 09:54:24 UTC
# ColumnLabels:                 energy counts/s transmission
#
420  7910.1  7.8364896
420.1  7680.4999  7.8363499
420.2  7389.1469  7.8362103
420.3  7429.0519  7.8360707
420.4  7141.1512  7.8359311
420.5  6961.0755  7.8357914
420.6  6991.7044  7.8356518
420.7  6966.9625  7.8355122
420.8  6891.1126  7.8353726
420.9  6684.7083  7.835233
421  6376.734  7.8350933
421.1  6070.1739  7.8349537
421.2  6039.0509  7.8348141
421.3  6076.2073  7.8346745
421.4  5862.5751  7.8345349
421.5  5723.9525  7.8343953
421.6  5967.3032  7.8342557
421.7  5733.3015  7.8341161
421.8  5607.3506  7.8339765
421.9  5531.7896  7.8338369
422  5206.0323  7.8336974
422.1  5149.4317  7.8335578
422.2  5162.0383  7.8334182
422.3  4998.1613  7.8332786
422.4  4700.7052  7.833139
422.5  4441.7875  7.8329994
422.6  4490.1561  7.8328599
422.7  4504.716  7.8327203
422.8  4273.8567  7.8325807
422.9  4071.8818  7.8324412
423  4283.505  7.8323016
423.1  4023.4011  7.832162
423.2  4252.8449  7.8320225
423.3  4115.6352  7.8318829
423.4  3774.3658  7.8317434
423.5  4093.7978  7.8316038
423.6  3872.8308  7.8314643
423.7  3878.9284  7.8313247
423.8  3961.4871  7.8311852
423.9  4060.2206  7.8310456
424  4191.2313  7.8309061
424.1  4235.1543  7.8307666
424.2  4215.2597  7.830627
424.3  4333.6828  7.8304875
424.4  4642.5056  7.830348
424.5  4985.2357  7.8302084
424.6  5211.8529  7.8300689
424.7  5565.8317  7.8299294
424.8  5897.3682  7.8297899
424.9  6203.693  7.8296504
425  6682.898  7.8295109
425.1  7108.8245  7.8293713
425.2  7675.1501  7.8292318
425.3  8410.6727  7.8290923
425.4  9172.7876  7.8289528
425.5  9521.0575  7.8288133
425.6  10791.855  7.8286738
425.7  12152.228  7.8285343
425.8  12679.607  7.8283948
425.9  13864.433  7.8282554
426  14621.616  7.8281159
426.1  15575.007  7.8279764
426.2  17051.495  7.8278369
426.3  18277.188  7.8276974
426.4  19067.884  7.827558
426.5  19598.202  7.8274185
426.6  20366.254  7.827279
426.7  21271.474  7.8271395
426.8  22475.048  7.8270001
426.9  22605.06  7.8268606
427  23378.756  7.8267212
427.1  24283.092  7.8265817
427.2  24012.709  7.8264422
427.3  24896.554  7.8263028
427.4  25175.918  7.8261633
427.5  25271.014  7.8260239
427.6  25096.896  7.8258845
427.7  25359.95  7.825745
427.8  24973.796  7.8256056
427.9  24835.008  7.8254661
428  24062.244  7.8253267
428.1  23246.828  7.8251873
428.2  22941.36  7.8250479
428.3  22440.216  7.8249084
428.4  20941.218  7.824769
428.5  20259.743  7.8246296
428.6  19086.484  7.8244902
428.7  18190.999  7.8243508
428.8  17059.8  7.8242114
428.9  16861.048  7.8240719
429  16845.22  7.8239325
429.1  17606.545  7.8237931
429.2  18247.144  7.8236537
429.3  20258.643  7.8235143
429.4  22705.16  7.823375
429.5  25504.511  7.8232356
429.6  29133.586  7.8230962
429.7  32644.451  7.8229568
429.8  35786.443  7.8228174
429.9  39064.777  7.822678
430  41147.586  7.8225387
430.1  44029.446  7.8223993
430.2  45266.803  7.8222599
430.3  45959.185  7.8221206
430.4  46284.132  7.8219812
430.5  46353.988  7.8218418
430.6  45374.54  7.8217025
430.7  43709.291  7.8215631
430.8  43590.082  7.8214238
430.9  42999.796  7.8212844
431  42366.454  7.8211451
431.1  42202.883  7.8210057
431.2  41484.008  7.8208664
431.3  42002.203  7.820727
431.4  42361.091  7.8205877
431.5  43303.441  7.8204484
431.6  44229.002  7.8203091
431.7  46015.837  7.8201697
431.8  48178.164  7.8200304
431.9  50027.164  7.8198911
432  52408.531  7.8197518
432.1  54859.427  7.8196125
432.2  56464.35  7.8194732
432.3  54146.373  7.8193338
432.4  51545.793  7.8191945
432.5  47407.098  7.8190552
432.6  42568.575  7.8189159
432.7  39317.542  7.8187766
432.8  37990.493  7.8186374
432.9  38915.873  7.8184981
433  40949.395  7.8183588
433.1  43121.538  7.8182195
433.2  46026.515  7.8180802
433.3  48339.089  7.8179409
433.4  51015.16  7.8178017
433.5  53166.5  7.8176624
433.6  54005.356  7.8175231
433.7  54297.343  7.8173839
433.8  53527.504  7.8172446
433.9  51492.734  7.8171053
434  49532.77  7.8169661
434.1  46300.965  7.8168268
434.2  42351.476  7.8166876
434.3  37848.984  7.8165483
434.4  32994.453  7.8164091
434.5  28443.08  7.8162699
434.6  23867.078  7.8161306
434.7  19020.528  7.8159914
434.8  15067.331  7.8158522
434.9  11654.75  7.8157129
435  8998.435  7.8155737
435.1  6862.8342  7.8154345
435.2  5439.9719  7.8152953
435.3  4522.6193  7.8151561
435.4  3532.4332  7.8150169
435.5  2980.4078  7.8148776
435.6  2564.4971  7.8147384
435.7  2289.5499  7.8145992
435.8  1983.5744  7.81446
435.9  1556.8206  7.8143208
436  1428.7092  7.8141817
436.1  1303.5301  7.8140425
436.2  1040.7573  7.8139033
436.3  788.22552  7.8137641
436.4  727.44426  7.8136249
436.5  526.77471  7.8134857
436.6  531.85996  7.8133466
436.7  464.43897  7.8132074
436.8  419.31414  7.8130682
436.9  385.3503  7.8129291
437  315.17573  7.8127899
437.1  334.29514  7.8126508
437.2  314.31798  7.8125116
437.3  275.93455  7.8123725
437.4  275.14242  7.8122333
437.5  304.45998  7.8120942
437.6  281.97095  7.811955
437.7  184.87166  7.8118159
437.8  170.40089  7.8116768
437.9  213.5822  7.8115376
438  223.51519  7.8113985
438.1  209.90576  7.8112594
438.2  209.76264  7.8111203
438.3  187.53562  7.8109812
438.4  222.63552  7.810842
438.5  190.44935  7.8107029
438.6  212.6599  7.8105638
438.7  212.96335  7.8104247
438.8  227.03688  7.8102856
438.9  208.9537  7.8101465
439  230.24452  7.8100074
439.1  231.88212  7.8098683
439.2  143.5297  7.8097293
439.3  138.00513  7.8095902
439.4  171.96573  7.8094511
439.5  192.29141  7.809312
439.6  219.38399  7.809173
439.7  164.63199  7.8090339
439.8  165.37789  7.8088948
439.9  152.25064  7.8087558
440  156.88637  7.8086167
440.1  148.8239  7.8084776
440.2  142.24755  7.8083386
440.3  144.7788  7.8081995
440.4  176.84391  7.8080605
440.5  172.51356  7.8079215
440.6  137.72203  7.8077824
440.7  108.50407  7.8076434
440.8  141.6116  7.8075044
440.9  143.29762  7.8073653
441  154.6142  7.8072263
441.1  150.16244  7.8070873
441.2  173.3222  7.8069483
441.3  136.05845  7.8068093
441.4  113.35384  7.8066702
441.5  136.15837  7.8065312
441.6  164.22007  7.8063922
441.7  134.7583  7.8062532
441.8  142.51394  7.8061142
441.9  127.563  7.8059752
442  188.8527  7.8058363
442.1  183.69118  7.8056973
442.2  144.77004  7.8055583
442.3  122.87833  7.8054193
442.4  167.59655  7.8052803
442.5  173.49125  7.8051414
442.6  165.95063  7.8050024
442.7  161.31405  7.8048634
442.8  135.91816  7.8047245
442.9  153.51543  7.8045855
443  161.11124  7.8044466
443.1  161.59608  7.8043076
443.2  158.90937  7.8041687
443.3  131.51448  7.8040297
443.4  158.90305  7.8038908
443.5  178.76605  7.8037518
443.6  190.99723  7.8036129
443.7  163.64305  7.803474
443.8  120.45176  7.8033351
443.9  136.42626  7.8031961
444  174.79034  7.8030572
444.1  168.50811  7.8029183
444.2  148.92254  7.8027794
444.3  129.58304  7.8026405
444.4  132.66766  7.8025016
444.5  162.2615  7.8023627
444.6  179.85037  7.8022238
444.7  129.33594  7.8020849
444.8  142.42576  7.801946
444.9  141.82986  7.8018071
445  145.72723  7.8016682

