# Created by:        SpecsLab Prodigy, Version 4.84.1-r101483 
#
# XY-Serializer Export Settings:
#   Comment Prefix:           #
#   Output Meta Data:         yes
#   Energy Axis:              Kinetic Energy
#   Count Rate:               Counts per Second
#   Separate Scan Data:       no
#   Separate Channel Data:    no
#   External Channel Data:    yes
#   Transmission Function:    yes
#   Error Bar:                no
#   Operation Results:        yes
#   Time Zone Format:         UTC
#
# Group:                        L-serine pH 7 500 mM
#
# Region:                       VBM
# Spectrum ID:                  632
# Acquisition Date:             03/12/26 07:01:44 UTC
# Analysis Method:              XPS
# Analyzer:                     Phoibos
# Analyzer Lens:                LargeArea:3.5kV
# Analyzer Slit:                5:7x20\B:open
# Scan Mode:                    FixedAnalyzerTransmission
# Curves/Scan:                  1
# Values/Curve:                 251
# Dwell Time:                   0.1
# Excitation Energy:            390
# Kinetic Energy:               370
# Pass Energy:                  10
# Bias Voltage:                 220
# Detector Voltage:             1920
# Eff. Workfunction:            0
# Source:                       Monochromator
# Comment:                      

# Cycle: 0
#
# Number of Scans: 2

# Cycle: 0, Curve: 0
#
# Acquisition Date:             03/12/26 07:01:44 UTC
# ColumnLabels:                 energy counts/s transmission
#
370  13656.615  7.9064414
370.1  13190.21  7.9063015
370.2  12938.637  7.9061617
370.3  12901.407  7.9060219
370.4  12789.192  7.9058821
370.5  12411.991  7.9057423
370.6  12299.219  7.9056024
370.7  12112.504  7.9054626
370.8  11972.714  7.9053228
370.9  11558.725  7.905183
371  11347.847  7.9050431
371.1  11202.06  7.9049033
371.2  10859.052  7.9047635
371.3  10771.11  7.9046236
371.4  10697.987  7.9044838
371.5  10308.305  7.9043439
371.6  10091.812  7.9042041
371.7  9663.5188  7.9040642
371.8  9666.3323  7.9039244
371.9  9464.9443  7.9037845
372  9429.3847  7.9036447
372.1  9390.3108  7.9035048
372.2  9339.6903  7.903365
372.3  8636.7733  7.9032251
372.4  8791.7274  7.9030853
372.5  9113.8242  7.9029454
372.6  9308.3464  7.9028055
372.7  9005.9659  7.9026657
372.8  9157.8376  7.9025258
372.9  9216.5322  7.9023859
373  9600.9708  7.9022461
373.1  9859.9992  7.9021062
373.2  10243.802  7.9019663
373.3  10471.108  7.9018265
373.4  11158.336  7.9016866
373.5  11482.571  7.9015467
373.6  12607.534  7.9014068
373.7  13670.764  7.901267
373.8  14597.103  7.9011271
373.9  15503.706  7.9009872
374  17058.283  7.9008473
374.1  18632.606  7.9007074
374.2  20059.526  7.9005675
374.3  21747.22  7.9004276
374.4  23672.381  7.9002877
374.5  26776.609  7.9001479
374.6  28970.857  7.900008
374.7  31986.706  7.8998681
374.8  33966.373  7.8997282
374.9  36819.786  7.8995883
375  39698.706  7.8994484
375.1  42032.746  7.8993085
375.2  44343.037  7.8991686
375.3  47096.149  7.8990287
375.4  49521.104  7.8988887
375.5  52042.022  7.8987488
375.6  55122.676  7.8986089
375.7  55782.218  7.898469
375.8  56991.645  7.8983291
375.9  57448.787  7.8981892
376  59059.798  7.8980493
376.1  59019  7.8979094
376.2  58752.527  7.8977694
376.3  59982.428  7.8976295
376.4  61124.266  7.8974896
376.5  60496.042  7.8973497
376.6  60844.04  7.8972098
376.7  60160.953  7.8970698
376.8  60031.005  7.8969299
376.9  58825.207  7.89679
377  58797.676  7.8966501
377.1  56630.733  7.8965101
377.2  54630.17  7.8963702
377.3  52667.607  7.8962303
377.4  50734.489  7.8960903
377.5  48985.724  7.8959504
377.6  46975.67  7.8958105
377.7  45045.874  7.8956705
377.8  42560.628  7.8955306
377.9  41264.196  7.8953907
378  40801.374  7.8952507
378.1  42394.568  7.8951108
378.2  44554.389  7.8949708
378.3  48177.444  7.8948309
378.4  53644.529  7.894691
378.5  61598.754  7.894551
378.6  70442.123  7.8944111
378.7  79528.43  7.8942711
378.8  88660.079  7.8941312
378.9  97512.472  7.8939912
379  104677.74  7.8938513
379.1  109981.22  7.8937113
379.2  113969.97  7.8935714
379.3  115253.18  7.8934314
379.4  116429.21  7.8932915
379.5  112765.07  7.8931515
379.6  108581.51  7.8930115
379.7  103069.39  7.8928716
379.8  99191.101  7.8927316
379.9  96254.939  7.8925917
380  93779.164  7.8924517
380.1  93410.782  7.8923117
380.2  93180.302  7.8921718
380.3  92852.385  7.8920318
380.4  92573.346  7.8918919
380.5  95277.27  7.8917519
380.6  98494.617  7.8916119
380.7  102875.42  7.891472
380.8  108278.22  7.891332
380.9  115544.93  7.891192
381  126366.78  7.8910521
381.1  139825.51  7.8909121
381.2  152348.75  7.8907721
381.3  157565.81  7.8906321
381.4  147581.1  7.8904922
381.5  124748.04  7.8903522
381.6  103044.8  7.8902122
381.7  89456.985  7.8900722
381.8  83229.161  7.8899323
381.9  84529.679  7.8897923
382  89730.284  7.8896523
382.1  95226.299  7.8895123
382.2  101497.7  7.8893724
382.3  107564  7.8892324
382.4  115332.65  7.8890924
382.5  120101.69  7.8889524
382.6  124832.93  7.8888124
382.7  125684.9  7.8886725
382.8  125184.42  7.8885325
382.9  124104.38  7.8883925
383  119624.91  7.8882525
383.1  113278.06  7.8881125
383.2  103770.54  7.8879725
383.3  94843.32  7.8878325
383.4  83727.821  7.8876926
383.5  71645.444  7.8875526
383.6  59423.084  7.8874126
383.7  48012.566  7.8872726
383.8  38861.607  7.8871326
383.9  30485.571  7.8869926
384  23205.426  7.8868526
384.1  17238.009  7.8867126
384.2  12840.099  7.8865726
384.3  10289.048  7.8864327
384.4  8601.6346  7.8862927
384.5  6799.7913  7.8861527
384.6  5709.2787  7.8860127
384.7  4910.949  7.8858727
384.8  4414.6222  7.8857327
384.9  3895.119  7.8855927
385  3334.2051  7.8854527
385.1  2520.3199  7.8853127
385.2  2209.9481  7.8851727
385.3  1898.1825  7.8850327
385.4  1529.6604  7.8848927
385.5  1130.3792  7.8847527
385.6  972.25765  7.8846127
385.7  859.43865  7.8844727
385.8  733.13293  7.8843327
385.9  653.62013  7.8841927
386  664.62379  7.8840527
386.1  579.3896  7.8839127
386.2  532.41974  7.8837727
386.3  528.84389  7.8836327
386.4  515.22921  7.8834927
386.5  526.54378  7.8833527
386.6  387.91091  7.8832127
386.7  363.05749  7.8830727
386.8  386.04583  7.8829327
386.9  460.54284  7.8827927
387  465.65226  7.8826527
387.1  377.6764  7.8825127
387.2  437.96398  7.8823727
387.3  346.62667  7.8822327
387.4  289.85199  7.8820927
387.5  347.1232  7.8819527
387.6  340.52868  7.8818127
387.7  400.05571  7.8816727
387.8  390.46721  7.8815327
387.9  352.73611  7.8813927
388  325.50711  7.8812527
388.1  335.54747  7.8811127
388.2  278.51004  7.8809727
388.3  298.14336  7.8808327
388.4  293.67492  7.8806927
388.5  299.395  7.8805527
388.6  272.66639  7.8804127
388.7  308.36933  7.8802727
388.8  374.35368  7.8801327
388.9  288.37079  7.8799927
389  300.38286  7.8798527
389.1  266.69417  7.8797126
389.2  303.35639  7.8795726
389.3  345.78185  7.8794326
389.4  345.03728  7.8792926
389.5  257.06226  7.8791526
389.6  301.57347  7.8790126
389.7  272.40454  7.8788726
389.8  320.28605  7.8787326
389.9  341.9556  7.8785926
390  323.42975  7.8784526
390.1  283.51254  7.8783126
390.2  291.3079  7.8781726
390.3  309.6655  7.8780326
390.4  229.20525  7.8778926
390.5  281.17161  7.8777526
390.6  268.76304  7.8776126
390.7  271.01876  7.8774726
390.8  316.88699  7.8773326
390.9  297.45372  7.8771926
391  282.00552  7.8770526
391.1  306.97809  7.8769125
391.2  267.01964  7.8767725
391.3  293.22015  7.8766325
391.4  258.23997  7.8764925
391.5  314.17552  7.8763525
391.6  240.36548  7.8762125
391.7  227.92427  7.8760725
391.8  242.60194  7.8759325
391.9  255.28992  7.8757925
392  258.63525  7.8756525
392.1  261.12005  7.8755125
392.2  354.19372  7.8753725
392.3  279.03819  7.8752325
392.4  255.42899  7.8750925
392.5  277.65751  7.8749525
392.6  255.85629  7.8748125
392.7  272.70319  7.8746725
392.8  257.66108  7.8745325
392.9  282.26706  7.8743925
393  221.88474  7.8742525
393.1  241.57546  7.8741125
393.2  222.80218  7.8739725
393.3  251.92607  7.8738325
393.4  256.8108  7.8736925
393.5  234.84732  7.8735525
393.6  263.97065  7.8734125
393.7  217.36209  7.8732725
393.8  296.83987  7.8731325
393.9  272.64535  7.8729925
394  298.56511  7.8728525
394.1  275.29889  7.8727125
394.2  277.77039  7.8725725
394.3  289.41883  7.8724325
394.4  320.81383  7.8722925
394.5  288.33657  7.8721525
394.6  266.52048  7.8720125
394.7  310.07255  7.8718725
394.8  264.87037  7.8717325
394.9  249.60495  7.8715926
395  303.50414  7.8714526

