# Created by:        SpecsLab Prodigy, Version 4.84.1-r101483 
#
# XY-Serializer Export Settings:
#   Comment Prefix:           #
#   Output Meta Data:         yes
#   Energy Axis:              Kinetic Energy
#   Count Rate:               Counts per Second
#   Separate Scan Data:       no
#   Separate Channel Data:    no
#   External Channel Data:    yes
#   Transmission Function:    yes
#   Error Bar:                no
#   Operation Results:        yes
#   Time Zone Format:         UTC
#
# Group:                        L-serine pH 7 500 mM
#
# Region:                       C 1s 300
# Spectrum ID:                  645
# Acquisition Date:             03/12/26 08:20:49 UTC
# Analysis Method:              XPS
# Analyzer:                     Phoibos
# Analyzer Lens:                LargeArea:3.5kV
# Analyzer Slit:                5:7x20\B:open
# Scan Mode:                    FixedAnalyzerTransmission
# Curves/Scan:                  1
# Values/Curve:                 251
# Dwell Time:                   0.1
# Excitation Energy:            590
# Kinetic Energy:               290
# Pass Energy:                  10
# Bias Voltage:                 220
# Detector Voltage:             1920
# Eff. Workfunction:            0
# Source:                       Monochromator
# Comment:                      

# Cycle: 0
#
# Number of Scans: 15

# Cycle: 0, Curve: 0
#
# Acquisition Date:             03/12/26 08:20:49 UTC
# ColumnLabels:                 energy counts/s transmission
#
290  11302.657  8.0163569
290.1  11257.134  8.016224
290.2  11177.671  8.0160911
290.3  11284.776  8.0159582
290.4  11383.848  8.0158252
290.5  11308.159  8.0156923
290.6  11321.125  8.0155593
290.7  11357.312  8.0154263
290.8  11269.189  8.0152933
290.9  11297.933  8.0151603
291  11334.742  8.0150272
291.1  11356.376  8.0148941
291.2  11261.174  8.014761
291.3  11319.88  8.0146279
291.4  11292.376  8.0144948
291.5  11448.284  8.0143617
291.6  11419.387  8.0142285
291.7  11482.457  8.0140953
291.8  11433.327  8.0139621
291.9  11371.459  8.0138289
292  11491.053  8.0136957
292.1  11538.256  8.0135625
292.2  11399.971  8.0134292
292.3  11385.211  8.0132959
292.4  11245.132  8.0131626
292.5  11394.784  8.0130293
292.6  11532.228  8.012896
292.7  11533.783  8.0127626
292.8  11623.088  8.0126293
292.9  11452.081  8.0124959
293  11550.261  8.0123625
293.1  11434.465  8.0122291
293.2  11646.062  8.0120956
293.3  11526.427  8.0119622
293.4  11454.19  8.0118287
293.5  11580.4  8.0116952
293.6  11585.387  8.0115617
293.7  11580.598  8.0114282
293.8  11421.442  8.0112947
293.9  11549.723  8.0111611
294  11449.015  8.0110275
294.1  11493.096  8.010894
294.2  11506.868  8.0107604
294.3  11547.546  8.0106267
294.4  11555.551  8.0104931
294.5  11620.931  8.0103594
294.6  11667.597  8.0102258
294.7  11734.078  8.0100921
294.8  11653.506  8.0099584
294.9  11486.43  8.0098247
295  11605.4  8.0096909
295.1  11625.443  8.0095572
295.2  11513.796  8.0094234
295.3  11677.86  8.0092896
295.4  11708.943  8.0091558
295.5  11639.562  8.009022
295.6  11616.286  8.0088882
295.7  11733.595  8.0087543
295.8  11646.297  8.0086205
295.9  11713.954  8.0084866
296  11769.288  8.0083527
296.1  11654.07  8.0082188
296.2  11717.185  8.0080848
296.3  11664.241  8.0079509
296.4  11694.014  8.0078169
296.5  11755.426  8.0076829
296.6  11725.063  8.0075489
296.7  11722.304  8.0074149
296.8  11728.205  8.0072809
296.9  11687.408  8.0071469
297  11752.373  8.0070128
297.1  11921.529  8.0068787
297.2  11706.364  8.0067446
297.3  11513.5  8.0066105
297.4  11706.168  8.0064764
297.5  11793.729  8.0063423
297.6  11671.226  8.0062081
297.7  11733.138  8.0060739
297.8  11952.175  8.0059398
297.9  11928.076  8.0058056
298  11843.462  8.0056713
298.1  11857.183  8.0055371
298.2  11930.222  8.0054029
298.3  11854.198  8.0052686
298.4  11799.784  8.0051343
298.5  11861.999  8.005
298.6  11921.915  8.0048657
298.7  11960.396  8.0047314
298.8  11920.954  8.004597
298.9  11883.099  8.0044627
299  11854.837  8.0043283
299.1  11792.877  8.0041939
299.2  11864.232  8.0040595
299.3  11872.594  8.0039251
299.4  11925.585  8.0037907
299.5  12095.944  8.0036562
299.6  12065.195  8.0035218
299.7  12086.79  8.0033873
299.8  12019.475  8.0032528
299.9  12087.1  8.0031183
300  11989.789  8.0029838
300.1  11984.01  8.0028492
300.2  12121.272  8.0027147
300.3  12121.815  8.0025801
300.4  12104.08  8.0024455
300.5  12233.462  8.0023109
300.6  12374.398  8.0021763
300.7  12391.629  8.0020417
300.8  12546.805  8.0019071
300.9  12650.076  8.0017724
301  12713.864  8.0016377
301.1  12956.908  8.001503
301.2  13143.339  8.0013683
301.3  13161.867  8.0012336
301.4  13369.18  8.0010989
301.5  13419.757  8.0009642
301.6  13260.057  8.0008294
301.7  13205.22  8.0006946
301.8  13255.632  8.0005598
301.9  13148.135  8.000425
302  12768.35  8.0002902
302.1  12644.657  8.0001554
302.2  12587.781  8.0000205
302.3  12445.325  7.9998857
302.4  12537.945  7.9997508
302.5  12840.752  7.9996159
302.6  13056.6  7.999481
302.7  13212.482  7.9993461
302.8  13339.761  7.9992112
302.9  13583.099  7.9990762
303  13938.158  7.9989413
303.1  14183.083  7.9988063
303.2  14262.546  7.9986713
303.3  14418.265  7.9985363
303.4  14663.885  7.9984013
303.5  14489.221  7.9982662
303.6  14457.841  7.9981312
303.7  14183.638  7.9979961
303.8  13970.919  7.9978611
303.9  13697.921  7.997726
304  13461.706  7.9975909
304.1  13146.595  7.9974558
304.2  12915.35  7.9973206
304.3  12728.336  7.9971855
304.4  12639.981  7.9970503
304.5  12670.142  7.9969152
304.6  12551.253  7.99678
304.7  12570.274  7.9966448
304.8  12381.561  7.9965096
304.9  12545.54  7.9963744
305  12565.426  7.9962391
305.1  12487.538  7.9961039
305.2  12518.261  7.9959686
305.3  12482.865  7.9958333
305.4  12544.83  7.995698
305.5  12460.702  7.9955627
305.6  12434.997  7.9954274
305.7  12552.957  7.9952921
305.8  12502.335  7.9951567
305.9  12475.149  7.9950214
306  12477.511  7.994886
306.1  12597.353  7.9947506
306.2  12554.291  7.9946152
306.3  12623.243  7.9944798
306.4  12678.706  7.9943444
306.5  12650.35  7.9942089
306.6  12537.886  7.9940735
306.7  12478.085  7.993938
306.8  12580.213  7.9938025
306.9  12634.891  7.993667
307  12561.98  7.9935315
307.1  12498.51  7.993396
307.2  12628.094  7.9932605
307.3  12714.944  7.9931249
307.4  12549.345  7.9929894
307.5  12639.223  7.9928538
307.6  12567.993  7.9927182
307.7  12672.375  7.9925826
307.8  12629.644  7.992447
307.9  12668.444  7.9923114
308  12628.901  7.9921758
308.1  12618.359  7.9920401
308.2  12679.65  7.9919044
308.3  12650.347  7.9917688
308.4  12711.337  7.9916331
308.5  12738.336  7.9914974
308.6  12761.446  7.9913617
308.7  12721.567  7.991226
308.8  12881.588  7.9910902
308.9  12831.823  7.9909545
309  12964.65  7.9908187
309.1  12790.562  7.9906829
309.2  12732.782  7.9905471
309.3  12817.653  7.9904113
309.4  12779.874  7.9902755
309.5  12739.385  7.9901397
309.6  12790.476  7.9900039
309.7  12758.737  7.989868
309.8  12725.149  7.9897321
309.9  12717.739  7.9895963
310  12773.322  7.9894604
310.1  12809.957  7.9893245
310.2  12795.674  7.9891886
310.3  12760.079  7.9890526
310.4  12725.795  7.9889167
310.5  12966.98  7.9887808
310.6  12872.705  7.9886448
310.7  12935.427  7.9885088
310.8  12813.765  7.9883728
310.9  12894.802  7.9882368
311  12886.942  7.9881008
311.1  12903.012  7.9879648
311.2  12970.796  7.9878288
311.3  12883.198  7.9876927
311.4  12927.969  7.9875567
311.5  12888.88  7.9874206
311.6  12838.966  7.9872845
311.7  12971.541  7.9871484
311.8  12881.25  7.9870123
311.9  12857.65  7.9868762
312  12902.873  7.9867401
312.1  13109.368  7.9866039
312.2  13043.084  7.9864678
312.3  13094.457  7.9863316
312.4  12966.548  7.9861954
312.5  13036.119  7.9860592
312.6  13003.936  7.985923
312.7  13117.149  7.9857868
312.8  13110.247  7.9856506
312.9  13050.994  7.9855144
313  12989.906  7.9853781
313.1  13170.409  7.9852419
313.2  12955.592  7.9851056
313.3  13214.224  7.9849693
313.4  13194.754  7.984833
313.5  13127.032  7.9846967
313.6  13112.662  7.9845604
313.7  13247.501  7.9844241
313.8  13007.192  7.9842877
313.9  12956.689  7.9841514
314  13121.536  7.984015
314.1  13130.841  7.9838786
314.2  13108.091  7.9837422
314.3  13127.908  7.9836059
314.4  13137.151  7.9834694
314.5  13013.547  7.983333
314.6  13039.373  7.9831966
314.7  13016.28  7.9830602
314.8  13202.485  7.9829237
314.9  13321.63  7.9827872
315  13229.33  7.9826508

