# Created by:        SpecsLab Prodigy, Version 4.84.1-r101483 
#
# XY-Serializer Export Settings:
#   Comment Prefix:           #
#   Output Meta Data:         yes
#   Energy Axis:              Kinetic Energy
#   Count Rate:               Counts per Second
#   Separate Scan Data:       no
#   Separate Channel Data:    no
#   External Channel Data:    yes
#   Transmission Function:    yes
#   Error Bar:                no
#   Operation Results:        yes
#   Time Zone Format:         UTC
#
# Group:                        L-serine pH 7 500 mM
#
# Region:                       N 1s 200
# Spectrum ID:                  619
# Acquisition Date:             03/12/26 06:04:04 UTC
# Analysis Method:              XPS
# Analyzer:                     Phoibos
# Analyzer Lens:                LargeArea:3.5kV
# Analyzer Slit:                5:7x20\B:open
# Scan Mode:                    FixedAnalyzerTransmission
# Curves/Scan:                  1
# Values/Curve:                 401
# Dwell Time:                   0.1
# Excitation Energy:            610
# Kinetic Energy:               190
# Pass Energy:                  10
# Bias Voltage:                 220
# Detector Voltage:             1920
# Eff. Workfunction:            0
# Source:                       Monochromator
# Comment:                      

# Cycle: 0
#
# Number of Scans: 12

# Cycle: 0, Curve: 0
#
# Acquisition Date:             03/12/26 06:04:04 UTC
# ColumnLabels:                 energy counts/s transmission
#
190  486.27357  8.1321036
190.1  485.65019  8.132017
190.2  457.9425  8.1319304
190.3  491.2184  8.1318436
190.4  465.99829  8.1317568
190.5  467.66966  8.1316698
190.6  470.20537  8.1315828
190.7  489.60275  8.1314957
190.8  502.24714  8.1314085
190.9  497.53765  8.1313212
191  499.57312  8.1312338
191.1  511.53823  8.1311463
191.2  512.46228  8.1310587
191.3  521.94575  8.1309711
191.4  537.00632  8.1308833
191.5  525.28977  8.1307955
191.6  513.61337  8.1307075
191.7  502.34613  8.1306195
191.8  507.83044  8.1305313
191.9  506.56082  8.1304431
192  537.15334  8.1303548
192.1  538.63638  8.1302664
192.2  562.03664  8.1301779
192.3  545.36343  8.1300893
192.4  539.74274  8.1300006
192.5  528.7544  8.1299119
192.6  557.37101  8.129823
192.7  590.44366  8.1297341
192.8  583.59597  8.129645
192.9  570.56749  8.1295559
193  549.74596  8.1294667
193.1  574.39071  8.1293774
193.2  586.5432  8.129288
193.3  573.09108  8.1291985
193.4  591.28587  8.1291089
193.5  591.18644  8.1290192
193.6  625.01229  8.1289295
193.7  592.49517  8.1288396
193.8  612.48332  8.1287497
193.9  620.97682  8.1286597
194  620.5786  8.1285696
194.1  647.88115  8.1284794
194.2  636.26354  8.1283891
194.3  646.29566  8.1282987
194.4  630.58308  8.1282082
194.5  647.90577  8.1281177
194.6  686.81527  8.1280271
194.7  690.21385  8.1279363
194.8  675.14514  8.1278455
194.9  708.0108  8.1277546
195  708.33522  8.1276636
195.1  752.42362  8.1275726
195.2  693.14985  8.1274814
195.3  741.52054  8.1273902
195.4  733.65836  8.1272988
195.5  734.65265  8.1272074
195.6  730.04004  8.1271159
195.7  733.43218  8.1270243
195.8  758.14449  8.1269326
195.9  765.47282  8.1268409
196  763.2363  8.126749
196.1  744.15466  8.1266571
196.2  753.38523  8.1265651
196.3  764.02961  8.126473
196.4  749.77732  8.1263808
196.5  778.62181  8.1262885
196.6  790.56721  8.1261962
196.7  791.93009  8.1261037
196.8  837.18287  8.1260112
196.9  830.23711  8.1259186
197  804.86546  8.1258259
197.1  833.36327  8.1257331
197.2  844.47107  8.1256403
197.3  852.83924  8.1255473
197.4  846.26424  8.1254543
197.5  829.89915  8.1253612
197.6  828.22028  8.125268
197.7  843.34588  8.1251747
197.8  871.2385  8.1250813
197.9  887.05358  8.1249879
198  845.2368  8.1248944
198.1  861.45552  8.1248008
198.2  912.46946  8.1247071
198.3  925.29245  8.1246133
198.4  912.16098  8.1245194
198.5  913.05636  8.1244255
198.6  913.6319  8.1243315
198.7  908.63088  8.1242374
198.8  942.59679  8.1241432
198.9  961.64225  8.1240489
199  930.1909  8.1239546
199.1  993.96192  8.1238602
199.2  967.44052  8.1237657
199.3  929.17384  8.1236711
199.4  994.16947  8.1235764
199.5  971.27333  8.1234817
199.6  968.25892  8.1233868
199.7  966.1605  8.1232919
199.8  981.69984  8.1231969
199.9  1015.8872  8.1231019
200  1022.5462  8.1230067
200.1  1070.4428  8.1229115
200.2  1041.1684  8.1228162
200.3  1003.1511  8.1227208
200.4  1054.1582  8.1226253
200.5  1050.1667  8.1225298
200.6  1012.1556  8.1224341
200.7  1025.717  8.1223384
200.8  1050.2179  8.1222426
200.9  1064.8247  8.1221468
201  1134.5998  8.1220508
201.1  1149.8911  8.1219548
201.2  1136.6122  8.1218587
201.3  1108.1855  8.1217625
201.4  1082.1789  8.1216663
201.5  1112.2998  8.1215699
201.6  1109.2707  8.1214735
201.7  1098.125  8.121377
201.8  1171.0018  8.1212805
201.9  1168.4104  8.1211838
202  1122.3611  8.1210871
202.1  1159.1444  8.1209903
202.2  1204.5311  8.1208934
202.3  1242.9439  8.1207964
202.4  1228.5553  8.1206994
202.5  1190.4619  8.1206023
202.6  1205.8191  8.1205051
202.7  1271.4648  8.1204079
202.8  1227.9639  8.1203105
202.9  1268.3868  8.1202131
203  1245.1332  8.1201156
203.1  1276.2213  8.1200181
203.2  1264.1267  8.1199204
203.3  1214.6163  8.1198227
203.4  1222.6896  8.1197249
203.5  1297.3678  8.119627
203.6  1281.0316  8.1195291
203.7  1260.3559  8.1194311
203.8  1293.1959  8.119333
203.9  1329.4296  8.1192348
204  1293.8862  8.1191366
204.1  1305.3538  8.1190382
204.2  1323.1241  8.1189398
204.3  1357.8476  8.1188414
204.4  1376.3826  8.1187428
204.5  1362.3806  8.1186442
204.6  1378.6907  8.1185455
204.7  1421.8818  8.1184468
204.8  1361.7285  8.1183479
204.9  1391.4515  8.118249
205  1411.3448  8.11815
205.1  1429.3648  8.118051
205.2  1431.593  8.1179518
205.3  1430.2913  8.1178526
205.4  1420.1844  8.1177533
205.5  1434.3336  8.117654
205.6  1436.4741  8.1175545
205.7  1435.7182  8.117455
205.8  1456.5077  8.1173555
205.9  1466.6924  8.1172558
206  1516.1563  8.1171561
206.1  1527.7634  8.1170563
206.2  1485.5222  8.1169565
206.3  1513.8873  8.1168565
206.4  1506.8976  8.1167565
206.5  1538.7725  8.1166564
206.6  1545.5037  8.1165563
206.7  1497.6169  8.1164561
206.8  1569.3034  8.1163558
206.9  1564.1624  8.1162554
207  1583.6891  8.116155
207.1  1592.3216  8.1160545
207.2  1576.934  8.1159539
207.3  1639.6862  8.1158532
207.4  1586.2858  8.1157525
207.5  1653.9055  8.1156517
207.6  1742.0868  8.1155509
207.7  1677.4807  8.1154499
207.8  1766.0876  8.1153489
207.9  1747.3323  8.1152479
208  1841.7676  8.1151467
208.1  1856.3311  8.1150455
208.2  1829.09  8.1149442
208.3  1843.8996  8.1148429
208.4  1864.7195  8.1147415
208.5  1799.9707  8.11464
208.6  1862.9735  8.1145384
208.7  1893.903  8.1144368
208.8  1935.6214  8.1143351
208.9  1908.8083  8.1142333
209  1865.4129  8.1141315
209.1  1841.0181  8.1140296
209.2  1841.4321  8.1139276
209.3  1827.9518  8.1138255
209.4  1845.7804  8.1137234
209.5  1835.8562  8.1136213
209.6  1848.5971  8.113519
209.7  1836.2474  8.1134167
209.8  1812.2699  8.1133143
209.9  1856.3137  8.1132118
210  1833.2247  8.1131093
210.1  1849.6593  8.1130067
210.2  1867.8296  8.1129041
210.3  1882.2954  8.1128014
210.4  1858.0331  8.1126986
210.5  1901.2115  8.1125957
210.6  1951.0752  8.1124928
210.7  1881.2915  8.1123898
210.8  1896.5032  8.1122867
210.9  1881.7584  8.1121836
211  1940.4678  8.1120804
211.1  1954.1021  8.1119771
211.2  1970.3303  8.1118738
211.3  1930.1124  8.1117704
211.4  2015.7325  8.111667
211.5  2000.4464  8.1115634
211.6  1915.085  8.1114598
211.7  1986.743  8.1113562
211.8  2019.3952  8.1112525
211.9  1901.3304  8.1111487
212  1995.3607  8.1110448
212.1  1992.5374  8.1109409
212.2  1965.2218  8.1108369
212.3  1975.6182  8.1107328
212.4  2059.827  8.1106287
212.5  2025.8513  8.1105245
212.6  2034.2249  8.1104203
212.7  2097.4523  8.110316
212.8  2100.3603  8.1102116
212.9  2122.4118  8.1101072
213  2112.5161  8.1100027
213.1  2069.9259  8.1098981
213.2  2124.191  8.1097934
213.3  2089.29  8.1096887
213.4  2158.9801  8.109584
213.5  2185.6073  8.1094792
213.6  2132.5188  8.1093743
213.7  2221.7723  8.1092693
213.8  2176.3528  8.1091643
213.9  2186.4326  8.1090592
214  2166.3994  8.108954
214.1  2176.1963  8.1088488
214.2  2244.6929  8.1087436
214.3  2243.2951  8.1086382
214.4  2244.7416  8.1085328
214.5  2240.7592  8.1084274
214.6  2231.0799  8.1083218
214.7  2314.5073  8.1082162
214.8  2243.296  8.1081106
214.9  2261.0036  8.1080049
215  2210.4114  8.1078991
215.1  2282.6834  8.1077932
215.2  2285.6034  8.1076873
215.3  2273.3698  8.1075814
215.4  2299.2834  8.1074753
215.5  2268.7261  8.1073693
215.6  2347.2253  8.1072631
215.7  2315.2656  8.1071569
215.8  2325.3241  8.1070506
215.9  2352.6308  8.1069443
216  2356.1917  8.1068379
216.1  2399.3384  8.1067314
216.2  2469.2307  8.1066249
216.3  2416.634  8.1065183
216.4  2397.9818  8.1064117
216.5  2430.0722  8.106305
216.6  2432.0289  8.1061982
216.7  2461.5992  8.1060914
216.8  2471.5008  8.1059845
216.9  2447.6656  8.1058775
217  2391.299  8.1057705
217.1  2461.6571  8.1056634
217.2  2451.7056  8.1055563
217.3  2494.6765  8.1054491
217.4  2488.6308  8.1053419
217.5  2539.0373  8.1052346
217.6  2533.5412  8.1051272
217.7  2551.4004  8.1050198
217.8  2577.53  8.1049123
217.9  2603.503  8.1048047
218  2558.9182  8.1046971
218.1  2594.4578  8.1045894
218.2  2652.0252  8.1044817
218.3  2589.834  8.1043739
218.4  2606.8964  8.1042661
218.5  2621.3513  8.1041582
218.6  2612.7866  8.1040502
218.7  2655.7406  8.1039422
218.8  2682.8677  8.1038341
218.9  2681.6789  8.1037259
219  2699.2721  8.1036177
219.1  2641.0844  8.1035095
219.2  2737.6852  8.1034012
219.3  2738.1459  8.1032928
219.4  2739.6068  8.1031844
219.5  2657.2686  8.1030759
219.6  2669.1413  8.1029673
219.7  2719.0371  8.1028587
219.8  2758.5895  8.10275
219.9  2816.8261  8.1026413
220  2768.0494  8.1025325
220.1  2701.9215  8.1024237
220.2  2826.5523  8.1023148
220.3  2824.1239  8.1022058
220.4  2814.5512  8.1020968
220.5  2840.0041  8.1019877
220.6  2912.2731  8.1018786
220.7  2818.7258  8.1017694
220.8  2867.3429  8.1016602
220.9  2863.204  8.1015509
221  2839.8986  8.1014415
221.1  2935.7865  8.1013321
221.2  2900.5478  8.1012227
221.3  2894.1042  8.1011131
221.4  2918.2348  8.1010036
221.5  2940.7544  8.1008939
221.6  2992.3315  8.1007842
221.7  2901.5688  8.1006745
221.8  2949.9963  8.1005647
221.9  2941.6556  8.1004548
222  2951.9961  8.1003449
222.1  3058.4924  8.1002349
222.2  3029.847  8.1001249
222.3  2939.1471  8.1000148
222.4  2979.4675  8.0999047
222.5  2988.8132  8.0997945
222.6  2934.9095  8.0996842
222.7  3064.3501  8.0995739
222.8  3056.4032  8.0994635
222.9  3069.5431  8.0993531
223  3047.0086  8.0992427
223.1  3049.6182  8.0991321
223.2  3118.8632  8.0990215
223.3  3104.0562  8.0989109
223.4  3131.8268  8.0988002
223.5  3153.4377  8.0986895
223.6  3091.5164  8.0985787
223.7  3130.8181  8.0984678
223.8  3160.4437  8.0983569
223.9  3198.2558  8.0982459
224  3220.8956  8.0981349
224.1  3196.0522  8.0980239
224.2  3228.9989  8.0979127
224.3  3213.151  8.0978016
224.4  3212.4084  8.0976903
224.5  3215.2472  8.097579
224.6  3127.2192  8.0974677
224.7  3281.7154  8.0973563
224.8  3213.9474  8.0972449
224.9  3194.3968  8.0971334
225  3233.7183  8.0970218
225.1  3302.8961  8.0969102
225.2  3326.7772  8.0967985
225.3  3306.6375  8.0966868
225.4  3313.9344  8.0965751
225.5  3276.4277  8.0964632
225.6  3272.9785  8.0963514
225.7  3298.1079  8.0962394
225.8  3398.0792  8.0961275
225.9  3417.0115  8.0960154
226  3316.1069  8.0959034
226.1  3335.9723  8.0957912
226.2  3334.5268  8.095679
226.3  3451.7133  8.0955668
226.4  3375.821  8.0954545
226.5  3407.1585  8.0953422
226.6  3437.9473  8.0952298
226.7  3505.1973  8.0951173
226.8  3521.3618  8.0950048
226.9  3545.0399  8.0948923
227  3531.6404  8.0947797
227.1  3473.5795  8.094667
227.2  3487.7034  8.0945543
227.3  3512.8743  8.0944416
227.4  3592.1507  8.0943288
227.5  3521.0871  8.0942159
227.6  3532.0177  8.094103
227.7  3535.826  8.09399
227.8  3490.3866  8.093877
227.9  3507.5775  8.093764
228  3567.5682  8.0936509
228.1  3640.9155  8.0935377
228.2  3591.9949  8.0934245
228.3  3542.234  8.0933112
228.4  3576.8888  8.0931979
228.5  3611.2102  8.0930845
228.6  3651.6655  8.0929711
228.7  3705.1594  8.0928577
228.8  3720.5228  8.0927442
228.9  3660.7408  8.0926306
229  3599.5232  8.092517
229.1  3686.0354  8.0924033
229.2  3634.4088  8.0922896
229.3  3725.3364  8.0921758
229.4  3749.8917  8.092062
229.5  3723.8003  8.0919482
229.6  3710.4391  8.0918342
229.7  3778.1578  8.0917203
229.8  3775.1893  8.0916063
229.9  3732.6132  8.0914922
230  3708.3522  8.0913781

