# Created by:        SpecsLab Prodigy, Version 4.84.1-r101483 
#
# XY-Serializer Export Settings:
#   Comment Prefix:           #
#   Output Meta Data:         yes
#   Energy Axis:              Kinetic Energy
#   Count Rate:               Counts per Second
#   Separate Scan Data:       no
#   Separate Channel Data:    no
#   External Channel Data:    yes
#   Transmission Function:    yes
#   Error Bar:                no
#   Operation Results:        yes
#   Time Zone Format:         UTC
#
# Group:                        L-serine pH 7 500 mM
#
# Region:                       N 1s 170
# Spectrum ID:                  689
# Acquisition Date:             03/12/26 15:20:25 UTC
# Analysis Method:              XPS
# Analyzer:                     Phoibos
# Analyzer Lens:                LargeArea:3.5kV
# Analyzer Slit:                5:7x20\B:open
# Scan Mode:                    FixedAnalyzerTransmission
# Curves/Scan:                  1
# Values/Curve:                 301
# Dwell Time:                   0.1
# Excitation Energy:            580
# Kinetic Energy:               160
# Pass Energy:                  10
# Bias Voltage:                 220
# Detector Voltage:             1920
# Eff. Workfunction:            0
# Source:                       Monochromator
# Comment:                      

# Cycle: 0
#
# Number of Scans: 18

# Cycle: 0, Curve: 0
#
# Acquisition Date:             03/12/26 15:20:25 UTC
# ColumnLabels:                 energy counts/s transmission
#
160  91.250189  8.1529831
160.1  88.307225  8.1529335
160.2  86.852037  8.1528838
160.3  90.017769  8.1528339
160.4  103.26132  8.1527839
160.5  97.935391  8.1527337
160.6  88.70773  8.1526834
160.7  94.2466  8.1526328
160.8  86.926595  8.1525822
160.9  95.464157  8.1525314
161  97.755681  8.1524804
161.1  99.752194  8.1524292
161.2  104.48982  8.1523779
161.3  81.845482  8.1523265
161.4  91.082367  8.1522749
161.5  89.444665  8.1522231
161.6  85.052618  8.1521712
161.7  87.22577  8.1521192
161.8  88.659593  8.1520669
161.9  78.476481  8.1520146
162  93.924462  8.151962
162.1  100.3037  8.1519094
162.2  90.356892  8.1518565
162.3  88.324824  8.1518035
162.4  92.332279  8.1517504
162.5  90.784254  8.1516971
162.6  96.701393  8.1516437
162.7  108.43513  8.1515901
162.8  108.86922  8.1515363
162.9  85.830311  8.1514824
163  99.409211  8.1514284
163.1  93.675201  8.1513742
163.2  91.307659  8.1513198
163.3  86.038296  8.1512653
163.4  92.557108  8.1512107
163.5  93.142644  8.1511559
163.6  93.644529  8.1511009
163.7  90.538305  8.1510458
163.8  93.825494  8.1509906
163.9  92.431181  8.1509352
164  95.939255  8.1508796
164.1  91.899807  8.1508239
164.2  84.536053  8.1507681
164.3  97.717738  8.1507121
164.4  91.668996  8.150656
164.5  83.566296  8.1505997
164.6  93.150747  8.1505433
164.7  92.07527  8.1504867
164.8  88.465183  8.15043
164.9  98.656464  8.1503731
165  88.420875  8.1503161
165.1  89.342039  8.150259
165.2  91.211485  8.1502017
165.3  98.140444  8.1501442
165.4  99.73865  8.1500866
165.5  93.983952  8.1500289
165.6  92.091947  8.149971
165.7  93.278747  8.149913
165.8  100.8056  8.1498548
165.9  80.547496  8.1497965
166  92.67779  8.1497381
166.1  97.909785  8.1496795
166.2  90.356386  8.1496207
166.3  102.67641  8.1495619
166.4  100.70658  8.1495028
166.5  101.85434  8.1494437
166.6  99.324752  8.1493844
166.7  105.28684  8.1493249
166.8  98.986641  8.1492653
166.9  93.285604  8.1492056
167  91.105009  8.1491457
167.1  97.958955  8.1490857
167.2  100.81408  8.1490256
167.3  94.949591  8.1489653
167.4  99.120163  8.1489049
167.5  97.629385  8.1488443
167.6  96.533858  8.1487836
167.7  101.91598  8.1487228
167.8  99.364087  8.1486618
167.9  104.55362  8.1486007
168  97.752989  8.1485394
168.1  93.981744  8.148478
168.2  104.0805  8.1484165
168.3  95.982422  8.1483548
168.4  98.977286  8.148293
168.5  101.83259  8.1482311
168.6  107.42  8.148169
168.7  99.830929  8.1481068
168.8  97.213334  8.1480444
168.9  104.4435  8.1479819
169  96.533907  8.1479193
169.1  89.094549  8.1478565
169.2  94.374056  8.1477937
169.3  97.382251  8.1477306
169.4  99.4116  8.1476675
169.5  104.13559  8.1476042
169.6  97.379348  8.1475407
169.7  98.289694  8.1474772
169.8  94.494239  8.1474135
169.9  97.96598  8.1473496
170  100.12169  8.1472857
170.1  103.20945  8.1472216
170.2  98.422013  8.1471573
170.3  90.803014  8.147093
170.4  96.86257  8.1470285
170.5  103.71777  8.1469638
170.6  106.27571  8.1468991
170.7  104.40158  8.1468342
170.8  99.323221  8.1467692
170.9  85.198507  8.146704
171  101.61446  8.1466387
171.1  104.07912  8.1465733
171.2  97.244081  8.1465078
171.3  110.19516  8.1464421
171.4  106.41642  8.1463763
171.5  97.872238  8.1463104
171.6  105.89586  8.1462443
171.7  100.17145  8.1461781
171.8  89.850682  8.1461118
171.9  95.99637  8.1460453
172  103.97944  8.1459787
172.1  118.90786  8.145912
172.2  111.98913  8.1458452
172.3  111.55779  8.1457782
172.4  104.78205  8.1457111
172.5  91.553899  8.1456439
172.6  104.83962  8.1455766
172.7  111.02922  8.1455091
172.8  105.25809  8.1454415
172.9  96.793071  8.1453738
173  113.57502  8.1453059
173.1  108.86047  8.1452379
173.2  96.195298  8.1451698
173.3  103.74384  8.1451016
173.4  96.478756  8.1450332
173.5  104.68305  8.1449648
173.6  122.14095  8.1448961
173.7  108.65202  8.1448274
173.8  107.53663  8.1447586
173.9  101.54799  8.1446896
174  110.13213  8.1446205
174.1  118.36528  8.1445512
174.2  112.14775  8.1444819
174.3  111.81699  8.1444124
174.4  108.46252  8.1443428
174.5  112.25577  8.1442731
174.6  116.26677  8.1442032
174.7  116.0833  8.1441333
174.8  125.23081  8.1440632
174.9  113.05455  8.143993
175  109.79527  8.1439226
175.1  105.22554  8.1438522
175.2  98.339892  8.1437816
175.3  114.32855  8.1437109
175.4  109.51339  8.1436401
175.5  115.40196  8.1435691
175.6  102.82803  8.1434981
175.7  120.83911  8.1434269
175.8  106.34368  8.1433556
175.9  106.98678  8.1432842
176  100.51187  8.1432126
176.1  112.73861  8.143141
176.2  106.95457  8.1430692
176.3  101.23429  8.1429973
176.4  108.13374  8.1429252
176.5  110.24171  8.1428531
176.6  111.84737  8.1427808
176.7  113.94226  8.1427085
176.8  121.04303  8.142636
176.9  102.54727  8.1425634
177  116.24709  8.1424906
177.1  117.16666  8.1424178
177.2  120.45925  8.1423448
177.3  109.87868  8.1422717
177.4  98.915316  8.1421985
177.5  110.24696  8.1421252
177.6  120.39811  8.1420518
177.7  123.77627  8.1419782
177.8  114.77772  8.1419046
177.9  104.71168  8.1418308
178  117.48828  8.1417569
178.1  130.05882  8.1416829
178.2  128.01985  8.1416087
178.3  110.682  8.1415345
178.4  112.12908  8.1414601
178.5  112.19566  8.1413856
178.6  111.89035  8.1413111
178.7  117.25606  8.1412363
178.8  112.30341  8.1411615
178.9  106.42206  8.1410866
179  120.24342  8.1410115
179.1  107.05003  8.1409364
179.2  113.0352  8.1408611
179.3  118.48926  8.1407857
179.4  119.41418  8.1407102
179.5  115.63281  8.1406346
179.6  115.92483  8.1405589
179.7  122.19269  8.140483
179.8  109.96043  8.1404071
179.9  117.19725  8.140331
180  121.44181  8.1402549
180.1  97.582679  8.1401786
180.2  101.08114  8.1401022
180.3  113.36072  8.1400257
180.4  120.54365  8.139949
180.5  119.40996  8.1398723
180.6  115.01933  8.1397955
180.7  113.26742  8.1397185
180.8  115.48018  8.1396415
180.9  119.08602  8.1395643
181  123.93442  8.139487
181.1  123.35504  8.1394096
181.2  131.54103  8.1393321
181.3  122.07648  8.1392545
181.4  114.09495  8.1391768
181.5  110.63545  8.1390989
181.6  119.68763  8.139021
181.7  118.89632  8.1389429
181.8  122.36242  8.1388648
181.9  129.53896  8.1387865
182  121.8532  8.1387082
182.1  124.48497  8.1386297
182.2  130.12819  8.1385511
182.3  119.65085  8.1384724
182.4  119.51438  8.1383936
182.5  121.8787  8.1383147
182.6  132.94894  8.1382356
182.7  121.3837  8.1381565
182.8  124.89147  8.1380773
182.9  135.96946  8.137998
183  128.44881  8.1379185
183.1  123.69307  8.137839
183.2  122.05839  8.1377593
183.3  132.19519  8.1376795
183.4  137.70934  8.1375997
183.5  130.26161  8.1375197
183.6  127.27366  8.1374396
183.7  137.83155  8.1373594
183.8  132.26877  8.1372791
183.9  133.22817  8.1371987
184  125.27135  8.1371182
184.1  128.60728  8.1370376
184.2  133.24977  8.1369569
184.3  148.1008  8.1368761
184.4  126.58228  8.1367952
184.5  133.39437  8.1367142
184.6  140.28606  8.1366331
184.7  131.66741  8.1365518
184.8  131.58786  8.1364705
184.9  140.95825  8.1363891
185  128.21778  8.1363075
185.1  140.24063  8.1362259
185.2  143.73122  8.1361442
185.3  148.94419  8.1360623
185.4  139.19377  8.1359804
185.5  140.87278  8.1358983
185.6  148.31564  8.1358162
185.7  139.89676  8.1357339
185.8  142.47191  8.1356516
185.9  146.2144  8.1355691
186  153.40239  8.1354866
186.1  164.53699  8.1354039
186.2  147.64411  8.1353212
186.3  141.1181  8.1352383
186.4  141.57555  8.1351554
186.5  144.32635  8.1350723
186.6  136.62039  8.1349892
186.7  153.90521  8.1349059
186.8  146.35852  8.1348226
186.9  141.11145  8.1347391
187  143.54579  8.1346555
187.1  152.74896  8.1345719
187.2  150.19738  8.1344881
187.3  172.76759  8.1344043
187.4  164.78938  8.1343203
187.5  153.66275  8.1342363
187.6  163.56354  8.1341521
187.7  138.57601  8.1340679
187.8  167.37111  8.1339836
187.9  167.4571  8.1338991
188  163.37521  8.1338146
188.1  167.19031  8.1337299
188.2  171.75953  8.1336452
188.3  163.84511  8.1335604
188.4  153.54972  8.1334755
188.5  153.44596  8.1333904
188.6  190.90021  8.1333053
188.7  191.19544  8.1332201
188.8  172.25881  8.1331348
188.9  174.58884  8.1330494
189  179.83508  8.1329639
189.1  183.50654  8.1328783
189.2  173.92303  8.1327926
189.3  172.03959  8.1327068
189.4  178.43223  8.1326209
189.5  180.64235  8.1325349
189.6  186.85031  8.1324488
189.7  194.29238  8.1323626
189.8  194.45403  8.1322764
189.9  198.78482  8.13219
190  181.44929  8.1321036

