# Created by:        SpecsLab Prodigy, Version 4.84.1-r101483 
#
# XY-Serializer Export Settings:
#   Comment Prefix:           #
#   Output Meta Data:         yes
#   Energy Axis:              Kinetic Energy
#   Count Rate:               Counts per Second
#   Separate Scan Data:       no
#   Separate Channel Data:    no
#   External Channel Data:    yes
#   Transmission Function:    yes
#   Error Bar:                no
#   Operation Results:        yes
#   Time Zone Format:         UTC
#
# Group:                        L-serine pH 7 500 mM
#
# Region:                       VBM
# Spectrum ID:                  675
# Acquisition Date:             03/12/26 14:01:43 UTC
# Analysis Method:              XPS
# Analyzer:                     Phoibos
# Analyzer Lens:                LargeArea:3.5kV
# Analyzer Slit:                5:7x20\B:open
# Scan Mode:                    FixedAnalyzerTransmission
# Curves/Scan:                  1
# Values/Curve:                 251
# Dwell Time:                   0.1
# Excitation Energy:            480
# Kinetic Energy:               460
# Pass Energy:                  10
# Bias Voltage:                 220
# Detector Voltage:             1920
# Eff. Workfunction:            0
# Source:                       Monochromator
# Comment:                      

# Cycle: 0
#
# Number of Scans: 2

# Cycle: 0, Curve: 0
#
# Acquisition Date:             03/12/26 14:01:43 UTC
# ColumnLabels:                 energy counts/s transmission
#
460  2792.0427  7.7808801
460.1  2710.8188  7.7807419
460.2  2518.9122  7.7806036
460.3  2547.9919  7.7804653
460.4  2492.1834  7.7803271
460.5  2448.1519  7.7801888
460.6  2328.1136  7.7800505
460.7  2308.3818  7.7799123
460.8  2293.9309  7.779774
460.9  2130.7851  7.7796358
461  2314.4862  7.7794976
461.1  2149.9824  7.7793593
461.2  2127.2793  7.7792211
461.3  2152.5938  7.7790829
461.4  2076.8956  7.7789447
461.5  2191.7232  7.7788064
461.6  2139.6001  7.7786682
461.7  2114.1119  7.77853
461.8  1955.222  7.7783918
461.9  1730.7863  7.7782536
462  1881.5988  7.7781154
462.1  1882.7658  7.7779772
462.2  1781.4445  7.777839
462.3  1711.3595  7.7777009
462.4  1724.4317  7.7775627
462.5  1561.6845  7.7774245
462.6  1571.0646  7.7772863
462.7  1525.0713  7.7771482
462.8  1367.5036  7.77701
462.9  1417.8098  7.7768719
463  1386.7941  7.7767337
463.1  1348.3152  7.7765956
463.2  1371.1582  7.7764574
463.3  1323.0266  7.7763193
463.4  1415.6725  7.7761812
463.5  1317.8408  7.776043
463.6  1378.3222  7.7759049
463.7  1320.3937  7.7757668
463.8  1371.9747  7.7756287
463.9  1263.4429  7.7754906
464  1283.1526  7.7753525
464.1  1342.3278  7.7752144
464.2  1298.8996  7.7750763
464.3  1374.001  7.7749382
464.4  1461.2232  7.7748001
464.5  1576.2905  7.774662
464.6  1511.2936  7.7745239
464.7  1624.4915  7.7743858
464.8  1733.2355  7.7742478
464.9  1798.5174  7.7741097
465  1812.3805  7.7739716
465.1  1795.2776  7.7738336
465.2  2012.407  7.7736955
465.3  2183.4001  7.7735575
465.4  2265.1119  7.7734194
465.5  2534.2631  7.7732814
465.6  2826.3829  7.7731434
465.7  2984.4271  7.7730053
465.8  3321.113  7.7728673
465.9  3655.7988  7.7727293
466  3832.4634  7.7725913
466.1  4256.3275  7.7724533
466.2  4367.9456  7.7723153
466.3  4784.5983  7.7721773
466.4  5392.8374  7.7720393
466.5  5881.2675  7.7719013
466.6  6213.274  7.7717633
466.7  6511.8233  7.7716253
466.8  6661.4113  7.7714873
466.9  7093.6687  7.7713493
467  7403.9013  7.7712114
467.1  7643.4852  7.7710734
467.2  7924.3254  7.7709354
467.3  8229.383  7.7707975
467.4  7975.5713  7.7706595
467.5  8125.5875  7.7705216
467.6  8209.0002  7.7703836
467.7  8323.9829  7.7702457
467.8  8251.8917  7.7701078
467.9  8118.4825  7.7699698
468  8141.6193  7.7698319
468.1  7613.8578  7.769694
468.2  7533.9256  7.7695561
468.3  7404.8765  7.7694182
468.4  7213.9747  7.7692803
468.5  6885.2087  7.7691424
468.6  6768.5081  7.7690045
468.7  6204.2731  7.7688666
468.8  5916.0499  7.7687287
468.9  5549.5454  7.7685908
469  5625.6641  7.7684529
469.1  5532.636  7.768315
469.2  5389.2104  7.7681772
469.3  5757.3845  7.7680393
469.4  6162.0787  7.7679015
469.5  6390.5385  7.7677636
469.6  7354.0211  7.7676257
469.7  8594.5977  7.7674879
469.8  9471.0802  7.7673501
469.9  10938.712  7.7672122
470  12364.217  7.7670744
470.1  13708.679  7.7669366
470.2  14853.843  7.7667987
470.3  15806.37  7.7666609
470.4  16137.721  7.7665231
470.5  16511.301  7.7663853
470.6  16945.13  7.7662475
470.7  16364.804  7.7661097
470.8  16633.274  7.7659719
470.9  16307.094  7.7658341
471  15644.492  7.7656963
471.1  15328.662  7.7655585
471.2  15114.188  7.7654208
471.3  14768.425  7.765283
471.4  14716.553  7.7651452
471.5  14987.987  7.7650075
471.6  14988.055  7.7648697
471.7  15081.085  7.764732
471.8  14451.637  7.7645942
471.9  14959.435  7.7644565
472  15093.26  7.7643187
472.1  15542.253  7.764181
472.2  16200.528  7.7640433
472.3  16787.111  7.7639056
472.4  17794.33  7.7637678
472.5  17806.41  7.7636301
472.6  17692.807  7.7634924
472.7  16837.39  7.7633547
472.8  15980.635  7.763217
472.9  14752.238  7.7630793
473  13858.219  7.7629416
473.1  13232.548  7.7628039
473.2  13364.865  7.7626663
473.3  14495.585  7.7625286
473.4  15325.721  7.7623909
473.5  15727.415  7.7622532
473.6  16358.58  7.7621156
473.7  16551.755  7.7619779
473.8  17025.154  7.7618403
473.9  17121.201  7.7617026
474  16846.533  7.761565
474.1  16231.546  7.7614273
474.2  15308.436  7.7612897
474.3  13778.961  7.7611521
474.4  13023.528  7.7610145
474.5  11622.051  7.7608768
474.6  10097.975  7.7607392
474.7  8211.1998  7.7606016
474.8  6906.0177  7.760464
474.9  5950.5805  7.7603264
475  4475.6535  7.7601888
475.1  3672.1224  7.7600512
475.2  2804.7623  7.7599136
475.3  2165.5512  7.7597761
475.4  1726.8505  7.7596385
475.5  1459.688  7.7595009
475.6  1115.3846  7.7593634
475.7  976.93719  7.7592258
475.8  854.53767  7.7590882
475.9  693.67844  7.7589507
476  560.8096  7.7588131
476.1  547.45796  7.7586756
476.2  459.77682  7.7585381
476.3  450.33473  7.7584005
476.4  359.81733  7.758263
476.5  246.55556  7.7581255
476.6  213.15825  7.757988
476.7  220.29259  7.7578505
476.8  152.66838  7.757713
476.9  147.3385  7.7575755
477  153.27093  7.757438
477.1  117.47723  7.7573005
477.2  102.5457  7.757163
477.3  110.35646  7.7570255
477.4  86.809215  7.756888
477.5  101.50547  7.7567506
477.6  105.23977  7.7566131
477.7  106.53991  7.7564756
477.8  81.34821  7.7563382
477.9  89.135658  7.7562007
478  61.366137  7.7560633
478.1  51.15692  7.7559258
478.2  62.611755  7.7557884
478.3  63.052394  7.755651
478.4  70.175041  7.7555135
478.5  83.57809  7.7553761
478.6  87.660479  7.7552387
478.7  70.731571  7.7551013
478.8  56.889294  7.7549639
478.9  70.19895  7.7548265
479  75.397015  7.7546891
479.1  70.089781  7.7545517
479.2  50.850284  7.7544143
479.3  76.489346  7.7542769
479.4  58.748225  7.7541395
479.5  79.86783  7.7540022
479.6  63.056534  7.7538648
479.7  43.900531  7.7537274
479.8  46.86008  7.7535901
479.9  65.422225  7.7534527
480  60.995195  7.7533154
480.1  70.604725  7.753178
480.2  51.881219  7.7530407
480.3  59.234141  7.7529034
480.4  54.525935  7.752766
480.5  29.297165  7.7526287
480.6  64.07459  7.7524914
480.7  49.488865  7.7523541
480.8  49.347695  7.7522168
480.9  58.67762  7.7520795
481  44.280224  7.7519422
481.1  54.426371  7.7518049
481.2  58.475823  7.7516676
481.3  35.310312  7.7515303
481.4  57.64891  7.751393
481.5  58.160575  7.7512558
481.6  52.58671  7.7511185
481.7  46.64223  7.7509812
481.8  58.788135  7.750844
481.9  39.287835  7.7507067
482  40.456205  7.7505695
482.1  46.822604  7.7504322
482.2  64.297211  7.750295
482.3  44.756725  7.7501578
482.4  47.04286  7.7500205
482.5  30.84589  7.7498833
482.6  30.212979  7.7497461
482.7  76.418681  7.7496089
482.8  38.8833  7.7494717
482.9  57.97992  7.7493345
483  79.016825  7.7491973
483.1  45.57387  7.7490601
483.2  27.570394  7.7489229
483.3  47.217251  7.7487857
483.4  59.136905  7.7486485
483.5  49.148239  7.7485114
483.6  52.476241  7.7483742
483.7  39.70173  7.748237
483.8  26.463435  7.7480999
483.9  34.31201  7.7479627
484  46.621299  7.7478256
484.1  52.82059  7.7476884
484.2  68.259656  7.7475513
484.3  40.42556  7.7474142
484.4  29.749185  7.7472771
484.5  63.74859  7.7471399
484.6  49.272275  7.7470028
484.7  50.8429  7.7468657
484.8  45.348865  7.7467286
484.9  45.68556  7.7465915
485  69.293465  7.7464544

