# Created by:        SpecsLab Prodigy, Version 4.84.1-r101483 
#
# XY-Serializer Export Settings:
#   Comment Prefix:           #
#   Output Meta Data:         yes
#   Energy Axis:              Kinetic Energy
#   Count Rate:               Counts per Second
#   Separate Scan Data:       no
#   Separate Channel Data:    no
#   External Channel Data:    yes
#   Transmission Function:    yes
#   Error Bar:                no
#   Operation Results:        yes
#   Time Zone Format:         UTC
#
# Group:                        L-serine pH 7 500 mM
#
# Region:                       VBM
# Spectrum ID:                  641
# Acquisition Date:             03/12/26 08:07:02 UTC
# Analysis Method:              XPS
# Analyzer:                     Phoibos
# Analyzer Lens:                LargeArea:3.5kV
# Analyzer Slit:                5:7x20\B:open
# Scan Mode:                    FixedAnalyzerTransmission
# Curves/Scan:                  1
# Values/Curve:                 251
# Dwell Time:                   0.1
# Excitation Energy:            810
# Kinetic Energy:               790
# Pass Energy:                  10
# Bias Voltage:                 220
# Detector Voltage:             1920
# Eff. Workfunction:            0
# Source:                       Monochromator
# Comment:                      

# Cycle: 0
#
# Number of Scans: 2

# Cycle: 0, Curve: 0
#
# Acquisition Date:             03/12/26 08:07:02 UTC
# ColumnLabels:                 energy counts/s transmission
#
790  80.235734  7.3582089
790.1  105.34878  7.3580919
790.2  99.016065  7.3579749
790.3  55.518881  7.357858
790.4  75.05115  7.357741
790.5  62.907355  7.3576241
790.6  85.23284  7.3575071
790.7  86.941275  7.3573902
790.8  69.757525  7.3572733
790.9  44.47914  7.3571564
791  57.596955  7.3570394
791.1  66.795855  7.3569225
791.2  99.208949  7.3568056
791.3  73.577546  7.3566887
791.4  60.667765  7.3565719
791.5  57.520125  7.356455
791.6  72.110444  7.3563381
791.7  83.361431  7.3562212
791.8  72.098475  7.3561044
791.9  72.212869  7.3559875
792  72.71457  7.3558707
792.1  82.992731  7.3557538
792.2  54.917015  7.355637
792.3  43.148475  7.3555202
792.4  57.896044  7.3554033
792.5  89.934926  7.3552865
792.6  78.149824  7.3551697
792.7  65.224306  7.3550529
792.8  40.37395  7.3549361
792.9  65.383615  7.3548193
793  57.077179  7.3547026
793.1  64.458851  7.3545858
793.2  55.046705  7.354469
793.3  65.132769  7.3543523
793.4  71.663031  7.3542355
793.5  57.26789  7.3541188
793.6  58.4519  7.354002
793.7  103.89058  7.3538853
793.8  81.296476  7.3537685
793.9  55.63824  7.3536518
794  59.73652  7.3535351
794.1  97.992655  7.3534184
794.2  85.453405  7.3533017
794.3  85.81014  7.353185
794.4  95.51743  7.3530683
794.5  80.022275  7.3529516
794.6  93.018485  7.352835
794.7  119.31439  7.3527183
794.8  107.21798  7.3526016
794.9  127.83027  7.352485
795  131.36534  7.3523683
795.1  148.74501  7.3522517
795.2  156.57464  7.352135
795.3  179.43518  7.3520184
795.4  155.27405  7.3519018
795.5  158.52529  7.3517852
795.6  192.45702  7.3516686
795.7  198.94836  7.351552
795.8  187.36888  7.3514354
795.9  205.60618  7.3513188
796  188.52377  7.3512022
796.1  238.648  7.3510856
796.2  310.63549  7.350969
796.3  314.96523  7.3508525
796.4  267.90122  7.3507359
796.5  228.08597  7.3506194
796.6  283.55157  7.3505028
796.7  214.46214  7.3503863
796.8  231.3549  7.3502697
796.9  238.54795  7.3501532
797  245.91699  7.3500367
797.1  257.01299  7.3499202
797.2  262.93455  7.3498037
797.3  225.42361  7.3496872
797.4  199.13238  7.3495707
797.5  247.37967  7.3494542
797.6  228.15259  7.3493377
797.7  189.88521  7.3492213
797.8  228.42935  7.3491048
797.9  216.51172  7.3489883
798  191.25419  7.3488719
798.1  198.45049  7.3487554
798.2  166.50578  7.348639
798.3  193.01997  7.3485226
798.4  258.08978  7.3484061
798.5  267.28947  7.3482897
798.6  297.31005  7.3481733
798.7  370.32363  7.3480569
798.8  309.31168  7.3479405
798.9  405.11314  7.3478241
799  538.67312  7.3477077
799.1  621.18609  7.3475913
799.2  590.22744  7.347475
799.3  588.65617  7.3473586
799.4  610.21959  7.3472422
799.5  548.51232  7.3471259
799.6  605.68538  7.3470095
799.7  658.13795  7.3468932
799.8  625.85671  7.3467769
799.9  617.39984  7.3466605
800  510.51333  7.3465442
800.1  503.70255  7.3464279
800.2  595.40656  7.3463116
800.3  596.60297  7.3461953
800.4  578.34082  7.346079
800.5  549.1761  7.3459627
800.6  532.97733  7.3458464
800.7  574.191  7.3457301
800.8  568.54517  7.3456139
800.9  603.01747  7.3454976
801  651.6863  7.3453814
801.1  651.80427  7.3452651
801.2  591.73557  7.3451489
801.3  673.02492  7.3450326
801.4  609.49722  7.3449164
801.5  596.29806  7.3448002
801.6  557.59681  7.344684
801.7  528.08482  7.3445677
801.8  495.22106  7.3444515
801.9  468.27003  7.3443353
802  366.21266  7.3442192
802.1  420.95252  7.344103
802.2  445.04588  7.3439868
802.3  487.7166  7.3438706
802.4  522.60074  7.3437545
802.5  568.95859  7.3436383
802.6  607.31593  7.3435221
802.7  588.65996  7.343406
802.8  609.94848  7.3432899
802.9  555.41609  7.3431737
803  666.77911  7.3430576
803.1  557.37033  7.3429415
803.2  506.67473  7.3428254
803.3  436.09092  7.3427093
803.4  397.5296  7.3425932
803.5  413.96702  7.3424771
803.6  367.85589  7.342361
803.7  323.75318  7.3422449
803.8  266.43145  7.3421288
803.9  181.90057  7.3420128
804  162.33142  7.3418967
804.1  120.0708  7.3417807
804.2  104.65183  7.3416646
804.3  93.564525  7.3415486
804.4  65.42076  7.3414325
804.5  47.54453  7.3413165
804.6  34.9065  7.3412005
804.7  41.752735  7.3410845
804.8  25.566285  7.3409685
804.9  40.123175  7.3408525
805  33.62566  7.3407365
805.1  27.37024  7.3406205
805.2  25.36567  7.3405045
805.3  25.18716  7.3403885
805.4  13.114425  7.3402726
805.5  20.99575  7.3401566
805.6  29.264  7.3400407
805.7  14.77875  7.3399247
805.8  10.85945  7.3398088
805.9  17.9066  7.3396928
806  17.4814  7.3395769
806.1  28.1998  7.339461
806.2  20.9023  7.3393451
806.3  14.0629  7.3392291
806.4  15.17135  7.3391132
806.5  19.5741  7.3389973
806.6  22.562265  7.3388815
806.7  19.748485  7.3387656
806.8  13.49735  7.3386497
806.9  4.44645  7.3385338
807  1.75345  7.338418
807.1  10.553545  7.3383021
807.2  25.119405  7.3381863
807.3  12.5736  7.3380704
807.4  3.24275  7.3379546
807.5  9.791515  7.3378387
807.6  6.918935  7.3377229
807.7  0.0468  7.3376071
807.8  0.8088  7.3374913
807.9  20.4259  7.3373755
808  8.7653  7.3372597
808.1  7.859845  7.3371439
808.2  13.927705  7.3370281
808.3  3.8083  7.3369123
808.4  13.50245  7.3367966
808.5  8.29335  7.3366808
808.6  2.60835  7.336565
808.7  6.14942  7.3364493
808.8  18.83788  7.3363335
808.9  11.79575  7.3362178
809  23.915  7.3361021
809.1  45.08155  7.3359863
809.2  58.8981  7.3358706
809.3  50.23815  7.3357549
809.4  55.35707  7.3356392
809.5  52.932449  7.3355235
809.6  71.511545  7.3354078
809.7  79.829436  7.3352921
809.8  71.60854  7.3351764
809.9  99.878209  7.3350608
810  94.66776  7.3349451
810.1  78.59919  7.3348294
810.2  79.542034  7.3347138
810.3  93.676242  7.3345981
810.4  64.327039  7.3344825
810.5  62.477131  7.3343668
810.6  44.823309  7.3342512
810.7  26.370596  7.3341356
810.8  37.741095  7.33402
810.9  21.483455  7.3339044
811  15.6805  7.3337888
811.1  7.43395  7.3336732
811.2  14.2342  7.3335576
811.3  15.715245  7.333442
811.4  36.063405  7.3333264
811.5  44.45585  7.3332108
811.6  50.75705  7.3330953
811.7  44.63925  7.3329797
811.8  97.07235  7.3328642
811.9  65.791225  7.3327486
812  92.21048  7.3326331
812.1  94.43762  7.3325176
812.2  68.531375  7.332402
812.3  75.348945  7.3322865
812.4  91.24044  7.332171
812.5  103.11316  7.3320555
812.6  87.136995  7.33194
812.7  88.156814  7.3318245
812.8  102.7201  7.331709
812.9  129.58754  7.3315935
813  111.37233  7.3314781
813.1  88.292234  7.3313626
813.2  82.690936  7.3312471
813.3  106.15004  7.3311317
813.4  88.54414  7.3310162
813.5  74.32712  7.3309008
813.6  89.74228  7.3307854
813.7  91.576925  7.3306699
813.8  98.010595  7.3305545
813.9  111.12778  7.3304391
814  105.98633  7.3303237
814.1  95.211465  7.3302083
814.2  76.979175  7.3300929
814.3  94.44261  7.3299775
814.4  88.88168  7.3298621
814.5  101.2257  7.3297467
814.6  111.19134  7.3296314
814.7  96.996045  7.329516
814.8  87.90975  7.3294007
814.9  87.46936  7.3292853
815  96.786129  7.32917

