# Created by:        SpecsLab Prodigy, Version 4.84.1-r101483 
#
# XY-Serializer Export Settings:
#   Comment Prefix:           #
#   Output Meta Data:         yes
#   Energy Axis:              Kinetic Energy
#   Count Rate:               Counts per Second
#   Separate Scan Data:       no
#   Separate Channel Data:    no
#   External Channel Data:    yes
#   Transmission Function:    yes
#   Error Bar:                no
#   Operation Results:        yes
#   Time Zone Format:         UTC
#
# Group:                        L-serine pH 7 500 mM
#
# Region:                       N 1s 150
# Spectrum ID:                  658
# Acquisition Date:             03/12/26 10:05:30 UTC
# Analysis Method:              XPS
# Analyzer:                     Phoibos
# Analyzer Lens:                LargeArea:3.5kV
# Analyzer Slit:                5:7x20\B:open
# Scan Mode:                    FixedAnalyzerTransmission
# Curves/Scan:                  1
# Values/Curve:                 351
# Dwell Time:                   0.1
# Excitation Energy:            560
# Kinetic Energy:               140
# Pass Energy:                  10
# Bias Voltage:                 220
# Detector Voltage:             1920
# Eff. Workfunction:            0
# Source:                       Monochromator
# Comment:                      

# Cycle: 0
#
# Number of Scans: 20

# Cycle: 0, Curve: 0
#
# Acquisition Date:             03/12/26 10:05:30 UTC
# ColumnLabels:                 energy counts/s transmission
#
140  496.76421  8.1592688
140.1  484.42161  8.1592578
140.2  477.51707  8.1592465
140.3  495.91373  8.1592349
140.4  501.62363  8.1592232
140.5  510.75827  8.1592112
140.6  492.54743  8.1591989
140.7  511.29909  8.1591865
140.8  531.3661  8.1591738
140.9  518.5509  8.1591609
141  491.04  8.1591478
141.1  514.08198  8.1591344
141.2  513.77275  8.1591208
141.3  523.04438  8.159107
141.4  498.25076  8.1590929
141.5  501.89183  8.1590787
141.6  503.63109  8.1590642
141.7  518.57393  8.1590495
141.8  505.97041  8.1590345
141.9  486.39045  8.1590193
142  516.18945  8.159004
142.1  497.74898  8.1589883
142.2  503.47841  8.1589725
142.3  525.35031  8.1589564
142.4  526.69247  8.1589402
142.5  519.81668  8.1589237
142.6  500.38855  8.1589069
142.7  495.64206  8.15889
142.8  537.91124  8.1588728
142.9  543.06715  8.1588554
143  527.91057  8.1588378
143.1  541.22852  8.15882
143.2  551.67001  8.158802
143.3  567.75669  8.1587837
143.4  548.82497  8.1587653
143.5  507.85142  8.1587466
143.6  516.49766  8.1587277
143.7  536.35833  8.1587085
143.8  542.66441  8.1586892
143.9  526.49839  8.1586696
144  527.45186  8.1586499
144.1  540.42394  8.1586299
144.2  541.10138  8.1586097
144.3  531.46223  8.1585893
144.4  564.6548  8.1585687
144.5  532.01433  8.1585478
144.6  532.51853  8.1585268
144.7  547.61036  8.1585055
144.8  525.99046  8.158484
144.9  547.60633  8.1584624
145  523.34484  8.1584405
145.1  541.89809  8.1584184
145.2  515.48408  8.158396
145.3  549.42843  8.1583735
145.4  572.51963  8.1583508
145.5  541.98401  8.1583278
145.6  567.02844  8.1583047
145.7  562.82303  8.1582813
145.8  542.65404  8.1582578
145.9  542.99985  8.158234
146  546.57687  8.15821
146.1  542.4168  8.1581858
146.2  564.72778  8.1581614
146.3  555.06403  8.1581368
146.4  550.79614  8.158112
146.5  562.61432  8.158087
146.6  572.03939  8.1580618
146.7  551.82748  8.1580364
146.8  539.55168  8.1580108
146.9  565.95936  8.1579849
147  546.71705  8.1579589
147.1  559.46249  8.1579327
147.2  570.90756  8.1579063
147.3  557.41718  8.1578796
147.4  547.18167  8.1578528
147.5  549.37102  8.1578258
147.6  575.7577  8.1577985
147.7  538.43239  8.1577711
147.8  569.01282  8.1577435
147.9  578.20004  8.1577156
148  567.037  8.1576876
148.1  585.92077  8.1576594
148.2  554.57402  8.1576309
148.3  565.68445  8.1576023
148.4  588.95613  8.1575735
148.5  583.26182  8.1575444
148.6  582.1449  8.1575152
148.7  569.64974  8.1574858
148.8  578.34843  8.1574562
148.9  562.70679  8.1574264
149  575.62604  8.1573964
149.1  562.96542  8.1573662
149.2  569.49589  8.1573358
149.3  585.12348  8.1573052
149.4  578.32055  8.1572744
149.5  579.55468  8.1572435
149.6  580.61763  8.1572123
149.7  593.93739  8.1571809
149.8  580.46351  8.1571494
149.9  584.2378  8.1571176
150  599.46005  8.1570857
150.1  586.30903  8.1570536
150.2  594.90339  8.1570213
150.3  589.78224  8.1569887
150.4  607.74535  8.156956
150.5  587.03093  8.1569232
150.6  596.94776  8.1568901
150.7  609.0506  8.1568568
150.8  601.00309  8.1568234
150.9  604.14974  8.1567897
151  587.04731  8.1567559
151.1  605.8035  8.1567219
151.2  608.42401  8.1566877
151.3  601.2613  8.1566533
151.4  588.73402  8.1566187
151.5  599.56854  8.1565839
151.6  610.74057  8.156549
151.7  588.50087  8.1565138
151.8  618.80625  8.1564785
151.9  619.58188  8.156443
152  600.96765  8.1564073
152.1  627.70166  8.1563714
152.2  596.54293  8.1563354
152.3  612.87635  8.1562991
152.4  607.56517  8.1562627
152.5  632.81051  8.1562261
152.6  623.62396  8.1561893
152.7  619.61378  8.1561523
152.8  614.0033  8.1561151
152.9  617.84093  8.1560778
153  639.19093  8.1560403
153.1  612.97315  8.1560026
153.2  647.32109  8.1559647
153.3  612.36985  8.1559266
153.4  618.61362  8.1558884
153.5  655.15993  8.15585
153.6  663.70135  8.1558114
153.7  641.81101  8.1557726
153.8  642.71052  8.1557336
153.9  628.13568  8.1556945
154  611.43217  8.1556552
154.1  634.91563  8.1556157
154.2  643.10557  8.155576
154.3  628.3623  8.1555362
154.4  637.31095  8.1554962
154.5  629.98869  8.155456
154.6  648.71311  8.1554156
154.7  648.90552  8.1553751
154.8  662.41643  8.1553343
154.9  631.01801  8.1552934
155  650.4649  8.1552524
155.1  654.24452  8.1552111
155.2  657.16559  8.1551697
155.3  663.69451  8.1551281
155.4  659.13905  8.1550863
155.5  669.9565  8.1550444
155.6  679.39864  8.1550023
155.7  681.8284  8.15496
155.8  652.58716  8.1549175
155.9  651.48726  8.1548749
156  661.78048  8.1548321
156.1  676.00726  8.1547891
156.2  683.40082  8.154746
156.3  667.32812  8.1547027
156.4  667.44573  8.1546592
156.5  678.93658  8.1546155
156.6  680.50739  8.1545717
156.7  666.31202  8.1545277
156.8  685.36078  8.1544836
156.9  667.46329  8.1544392
157  674.9891  8.1543947
157.1  691.84982  8.1543501
157.2  685.95183  8.1543052
157.3  716.358  8.1542602
157.4  711.34669  8.1542151
157.5  684.31824  8.1541697
157.6  696.6456  8.1541242
157.7  688.06383  8.1540786
157.8  691.89752  8.1540327
157.9  703.42721  8.1539867
158  716.25594  8.1539406
158.1  732.32419  8.1538943
158.2  750.89648  8.1538478
158.3  729.55294  8.1538011
158.4  714.60797  8.1537543
158.5  723.77286  8.1537073
158.6  724.4932  8.1536602
158.7  711.55983  8.1536128
158.8  720.92354  8.1535654
158.9  719.55985  8.1535177
159  716.11104  8.1534699
159.1  739.82589  8.153422
159.2  696.43547  8.1533739
159.3  681.18453  8.1533256
159.4  719.01541  8.1532771
159.5  736.26364  8.1532285
159.6  717.41049  8.1531798
159.7  742.18638  8.1531308
159.8  716.28317  8.1530817
159.9  725.50204  8.1530325
160  726.28043  8.1529831
160.1  754.58598  8.1529335
160.2  720.17617  8.1528838
160.3  714.39581  8.1528339
160.4  723.77369  8.1527839
160.5  721.59732  8.1527337
160.6  699.44206  8.1526834
160.7  749.48742  8.1526328
160.8  734.36479  8.1525822
160.9  762.33257  8.1525314
161  726.26578  8.1524804
161.1  741.48547  8.1524292
161.2  730.59618  8.1523779
161.3  749.98795  8.1523265
161.4  754.98387  8.1522749
161.5  753.85506  8.1522231
161.6  755.0408  8.1521712
161.7  757.72782  8.1521192
161.8  747.08907  8.1520669
161.9  759.50809  8.1520146
162  763.66969  8.151962
162.1  775.49668  8.1519094
162.2  750.39902  8.1518565
162.3  751.4334  8.1518035
162.4  779.90489  8.1517504
162.5  796.76284  8.1516971
162.6  766.14565  8.1516437
162.7  751.96067  8.1515901
162.8  799.3441  8.1515363
162.9  768.4033  8.1514824
163  768.62437  8.1514284
163.1  769.09593  8.1513742
163.2  778.43207  8.1513198
163.3  783.65161  8.1512653
163.4  802.45629  8.1512107
163.5  793.16566  8.1511559
163.6  798.9578  8.1511009
163.7  779.11571  8.1510458
163.8  795.77436  8.1509906
163.9  809.86637  8.1509352
164  765.12776  8.1508796
164.1  769.16534  8.1508239
164.2  811.09699  8.1507681
164.3  797.34902  8.1507121
164.4  793.25152  8.150656
164.5  825.32318  8.1505997
164.6  810.72717  8.1505433
164.7  805.32967  8.1504867
164.8  799.2835  8.15043
164.9  797.42244  8.1503731
165  827.80485  8.1503161
165.1  794.02105  8.150259
165.2  816.56683  8.1502017
165.3  802.69085  8.1501442
165.4  831.69229  8.1500866
165.5  838.86968  8.1500289
165.6  841.43873  8.149971
165.7  854.54468  8.149913
165.8  850.02557  8.1498548
165.9  837.03168  8.1497965
166  823.54619  8.1497381
166.1  871.14925  8.1496795
166.2  864.09714  8.1496207
166.3  845.13924  8.1495619
166.4  851.05644  8.1495028
166.5  843.22916  8.1494437
166.6  829.38739  8.1493844
166.7  838.12306  8.1493249
166.8  831.92614  8.1492653
166.9  884.73577  8.1492056
167  862.92335  8.1491457
167.1  851.1156  8.1490857
167.2  880.9057  8.1490256
167.3  883.12803  8.1489653
167.4  895.15849  8.1489049
167.5  859.5504  8.1488443
167.6  879.08051  8.1487836
167.7  896.19383  8.1487228
167.8  904.75756  8.1486618
167.9  890.17925  8.1486007
168  899.35186  8.1485394
168.1  898.98276  8.148478
168.2  909.03445  8.1484165
168.3  894.14476  8.1483548
168.4  925.71063  8.148293
168.5  932.64199  8.1482311
168.6  941.93847  8.148169
168.7  939.13879  8.1481068
168.8  893.0747  8.1480444
168.9  949.9401  8.1479819
169  977.30964  8.1479193
169.1  941.72578  8.1478565
169.2  908.1527  8.1477937
169.3  916.23725  8.1477306
169.4  928.80264  8.1476675
169.5  948.44294  8.1476042
169.6  974.10648  8.1475407
169.7  972.74842  8.1474772
169.8  945.28666  8.1474135
169.9  968.88118  8.1473496
170  978.984  8.1472857
170.1  988.74398  8.1472216
170.2  962.15842  8.1471573
170.3  990.74996  8.147093
170.4  994.16223  8.1470285
170.5  968.72699  8.1469638
170.6  1013.084  8.1468991
170.7  1022.1021  8.1468342
170.8  1001.3001  8.1467692
170.9  1011.0641  8.146704
171  1010.5817  8.1466387
171.1  982.52825  8.1465733
171.2  1017.7558  8.1465078
171.3  1056.9253  8.1464421
171.4  1055.0981  8.1463763
171.5  1054.4571  8.1463104
171.6  1025.7553  8.1462443
171.7  1064.8342  8.1461781
171.8  1092.1638  8.1461118
171.9  1090.857  8.1460453
172  1080.3092  8.1459787
172.1  1043.6302  8.145912
172.2  1091.995  8.1458452
172.3  1100.1505  8.1457782
172.4  1082.8469  8.1457111
172.5  1124.4093  8.1456439
172.6  1114.8589  8.1455766
172.7  1124.5164  8.1455091
172.8  1109.1667  8.1454415
172.9  1114.9554  8.1453738
173  1133.6862  8.1453059
173.1  1156.1121  8.1452379
173.2  1136.2328  8.1451698
173.3  1131.1473  8.1451016
173.4  1130.0059  8.1450332
173.5  1155.3257  8.1449648
173.6  1155.388  8.1448961
173.7  1188.9115  8.1448274
173.8  1192.9324  8.1447586
173.9  1181.895  8.1446896
174  1179.6068  8.1446205
174.1  1234.8336  8.1445512
174.2  1237.5836  8.1444819
174.3  1225.2369  8.1444124
174.4  1229.1609  8.1443428
174.5  1185.7269  8.1442731
174.6  1239.5025  8.1442032
174.7  1216.5823  8.1441333
174.8  1255.799  8.1440632
174.9  1265.011  8.143993
175  1257.0063  8.1439226

