# Created by:        SpecsLab Prodigy, Version 4.84.1-r101483 
#
# XY-Serializer Export Settings:
#   Comment Prefix:           #
#   Output Meta Data:         yes
#   Energy Axis:              Kinetic Energy
#   Count Rate:               Counts per Second
#   Separate Scan Data:       no
#   Separate Channel Data:    no
#   External Channel Data:    yes
#   Transmission Function:    yes
#   Error Bar:                no
#   Operation Results:        yes
#   Time Zone Format:         UTC
#
# Group:                        L-serine pH 7 500 mM
#
# Region:                       N 1s 800
# Spectrum ID:                  612
# Acquisition Date:             03/12/26 05:15:19 UTC
# Analysis Method:              XPS
# Analyzer:                     Phoibos
# Analyzer Lens:                LargeArea:3.5kV
# Analyzer Slit:                5:7x20\B:open
# Scan Mode:                    FixedAnalyzerTransmission
# Curves/Scan:                  1
# Values/Curve:                 401
# Dwell Time:                   0.1
# Excitation Energy:            1210
# Kinetic Energy:               790
# Pass Energy:                  10
# Bias Voltage:                 220
# Detector Voltage:             1920
# Eff. Workfunction:            0
# Source:                       Monochromator
# Comment:                      5th

# Cycle: 0
#
# Number of Scans: 20

# Cycle: 0, Curve: 0
#
# Acquisition Date:             03/12/26 05:15:19 UTC
# ColumnLabels:                 energy counts/s transmission
#
790  23.800609  7.3582089
790.1  21.747309  7.3580919
790.2  24.46423  7.3579749
790.3  26.3927  7.357858
790.4  27.865355  7.357741
790.5  27.576784  7.3576241
790.6  22.30942  7.3575071
790.7  25.921125  7.3573902
790.8  18.365541  7.3572733
790.9  21.684269  7.3571564
791  27.015149  7.3570394
791.1  23.325098  7.3569225
791.2  20.759324  7.3568056
791.3  18.853593  7.3566887
791.4  25.280177  7.3565719
791.5  25.449489  7.356455
791.6  24.135178  7.3563381
791.7  26.965271  7.3562212
791.8  28.935139  7.3561044
791.9  25.240881  7.3559875
792  23.55439  7.3558707
792.1  28.592877  7.3557538
792.2  28.096952  7.355637
792.3  19.111714  7.3555202
792.4  21.8787  7.3554033
792.5  21.316171  7.3552865
792.6  18.515925  7.3551697
792.7  24.996448  7.3550529
792.8  23.999075  7.3549361
792.9  23.423902  7.3548193
793  23.601933  7.3547026
793.1  22.445331  7.3545858
793.2  20.915329  7.354469
793.3  21.107586  7.3543523
793.4  22.882724  7.3542355
793.5  26.901716  7.3541188
793.6  25.554895  7.354002
793.7  21.527322  7.3538853
793.8  23.859603  7.3537685
793.9  28.222601  7.3536518
794  29.817449  7.3535351
794.1  26.12143  7.3534184
794.2  17.096044  7.3533017
794.3  15.445101  7.353185
794.4  18.11644  7.3530683
794.5  22.589674  7.3529516
794.6  23.523931  7.352835
794.7  23.594284  7.3527183
794.8  22.551503  7.3526016
794.9  19.725866  7.352485
795  22.140164  7.3523683
795.1  27.650011  7.3522517
795.2  24.81349  7.352135
795.3  23.104049  7.3520184
795.4  20.468597  7.3519018
795.5  21.83528  7.3517852
795.6  19.225571  7.3516686
795.7  20.517964  7.351552
795.8  22.992642  7.3514354
795.9  25.215071  7.3513188
796  19.976853  7.3512022
796.1  21.356808  7.3510856
796.2  24.016441  7.350969
796.3  24.126506  7.3508525
796.4  21.185361  7.3507359
796.5  19.198165  7.3506194
796.6  20.213695  7.3505028
796.7  17.966466  7.3503863
796.8  17.942061  7.3502697
796.9  20.059384  7.3501532
797  30.035715  7.3500367
797.1  23.336138  7.3499202
797.2  26.316265  7.3498037
797.3  26.65092  7.3496872
797.4  25.47354  7.3495707
797.5  22.588587  7.3494542
797.6  23.466705  7.3493377
797.7  20.447259  7.3492213
797.8  19.805032  7.3491048
797.9  20.466393  7.3489883
798  23.148174  7.3488719
798.1  20.596625  7.3487554
798.2  24.429035  7.348639
798.3  22.915941  7.3485226
798.4  20.709425  7.3484061
798.5  21.104722  7.3482897
798.6  15.688414  7.3481733
798.7  20.559341  7.3480569
798.8  21.990062  7.3479405
798.9  19.226787  7.3478241
799  19.761783  7.3477077
799.1  22.620406  7.3475913
799.2  23.237993  7.347475
799.3  23.420003  7.3473586
799.4  22.701369  7.3472422
799.5  25.878917  7.3471259
799.6  26.899822  7.3470095
799.7  20.929917  7.3468932
799.8  20.735931  7.3467769
799.9  25.459879  7.3466605
800  18.52761  7.3465442
800.1  21.258686  7.3464279
800.2  20.789155  7.3463116
800.3  20.083367  7.3461953
800.4  25.368027  7.346079
800.5  23.442128  7.3459627
800.6  18.778141  7.3458464
800.7  19.867315  7.3457301
800.8  16.136926  7.3456139
800.9  21.196913  7.3454976
801  27.898991  7.3453814
801.1  18.573269  7.3452651
801.2  24.188834  7.3451489
801.3  20.099208  7.3450326
801.4  23.048906  7.3449164
801.5  22.710263  7.3448002
801.6  19.400333  7.344684
801.7  20.116212  7.3445677
801.8  18.997839  7.3444515
801.9  17.487606  7.3443353
802  21.985591  7.3442192
802.1  22.227804  7.344103
802.2  24.17966  7.3439868
802.3  25.666308  7.3438706
802.4  23.469707  7.3437545
802.5  21.124525  7.3436383
802.6  22.255998  7.3435221
802.7  24.261038  7.343406
802.8  23.749518  7.3432899
802.9  19.379566  7.3431737
803  20.721141  7.3430576
803.1  20.918801  7.3429415
803.2  25.464523  7.3428254
803.3  20.292535  7.3427093
803.4  22.506735  7.3425932
803.5  22.887361  7.3424771
803.6  18.740724  7.342361
803.7  22.6056  7.3422449
803.8  19.475142  7.3421288
803.9  18.177585  7.3420128
804  20.200796  7.3418967
804.1  23.174872  7.3417807
804.2  24.627663  7.3416646
804.3  20.555877  7.3415486
804.4  21.527086  7.3414325
804.5  17.244876  7.3413165
804.6  25.410128  7.3412005
804.7  18.481569  7.3410845
804.8  16.634892  7.3409685
804.9  24.16576  7.3408525
805  22.704096  7.3407365
805.1  17.694662  7.3406205
805.2  22.329874  7.3405045
805.3  18.305746  7.3403885
805.4  19.284181  7.3402726
805.5  20.171784  7.3401566
805.6  19.338336  7.3400407
805.7  13.479593  7.3399247
805.8  18.337605  7.3398088
805.9  24.045642  7.3396928
806  20.282061  7.3395769
806.1  22.4094  7.339461
806.2  23.105873  7.3393451
806.3  20.61249  7.3392291
806.4  21.657998  7.3391132
806.5  20.242601  7.3389973
806.6  17.165536  7.3388815
806.7  24.775947  7.3387656
806.8  28.237539  7.3386497
806.9  25.628457  7.3385338
807  28.91799  7.338418
807.1  30.23998  7.3383021
807.2  27.482529  7.3381863
807.3  34.333038  7.3380704
807.4  31.325331  7.3379546
807.5  31.215171  7.3378387
807.6  32.510714  7.3377229
807.7  43.220906  7.3376071
807.8  41.596717  7.3374913
807.9  40.458371  7.3373755
808  49.045185  7.3372597
808.1  58.965755  7.3371439
808.2  48.854135  7.3370281
808.3  54.443861  7.3369123
808.4  51.07834  7.3367966
808.5  45.141324  7.3366808
808.6  38.043618  7.336565
808.7  42.736696  7.3364493
808.8  36.759448  7.3363335
808.9  31.860536  7.3362178
809  27.90299  7.3361021
809.1  27.235459  7.3359863
809.2  26.752548  7.3358706
809.3  27.530859  7.3357549
809.4  26.97115  7.3356392
809.5  25.725739  7.3355235
809.6  26.035386  7.3354078
809.7  22.965605  7.3352921
809.8  21.44537  7.3351764
809.9  21.696134  7.3350608
810  23.282917  7.3349451
810.1  24.426922  7.3348294
810.2  21.600261  7.3347138
810.3  22.049183  7.3345981
810.4  20.78697  7.3344825
810.5  17.084308  7.3343668
810.6  23.403231  7.3342512
810.7  21.723292  7.3341356
810.8  21.166804  7.33402
810.9  19.76307  7.3339044
811  23.729366  7.3337888
811.1  19.029245  7.3336732
811.2  17.27302  7.3335576
811.3  17.09192  7.333442
811.4  21.139257  7.3333264
811.5  25.736343  7.3332108
811.6  21.734817  7.3330953
811.7  28.178479  7.3329797
811.8  24.92031  7.3328642
811.9  17.496794  7.3327486
812  21.771646  7.3326331
812.1  21.277611  7.3325176
812.2  17.940517  7.332402
812.3  18.01453  7.3322865
812.4  19.396631  7.332171
812.5  19.978637  7.3320555
812.6  22.058431  7.33194
812.7  18.186213  7.3318245
812.8  20.799339  7.331709
812.9  22.619099  7.3315935
813  17.749345  7.3314781
813.1  18.867046  7.3313626
813.2  15.340952  7.3312471
813.3  16.336408  7.3311317
813.4  18.641918  7.3310162
813.5  24.26627  7.3309008
813.6  25.008159  7.3307854
813.7  16.663101  7.3306699
813.8  18.935665  7.3305545
813.9  17.696937  7.3304391
814  21.083669  7.3303237
814.1  18.571225  7.3302083
814.2  14.651587  7.3300929
814.3  22.691956  7.3299775
814.4  18.422913  7.3298621
814.5  23.472585  7.3297467
814.6  26.577902  7.3296314
814.7  24.866674  7.329516
814.8  19.543948  7.3294007
814.9  15.42693  7.3292853
815  19.90266  7.32917
815.1  22.950289  7.3290546
815.2  20.304884  7.3289393
815.3  17.714574  7.328824
815.4  23.319649  7.3287087
815.5  20.804651  7.3285933
815.6  21.532722  7.328478
815.7  21.179644  7.3283627
815.8  21.433594  7.3282474
815.9  18.42504  7.3281322
816  21.348431  7.3280169
816.1  15.943956  7.3279016
816.2  20.69701  7.3277863
816.3  19.575773  7.3276711
816.4  20.552773  7.3275558
816.5  22.252403  7.3274406
816.6  26.142633  7.3273253
816.7  25.093524  7.3272101
816.8  21.16663  7.3270949
816.9  22.418009  7.3269797
817  24.749413  7.3268645
817.1  21.766853  7.3267492
817.2  21.539325  7.326634
817.3  22.503332  7.3265189
817.4  21.85035  7.3264037
817.5  17.948084  7.3262885
817.6  20.461763  7.3261733
817.7  17.063608  7.3260581
817.8  19.638959  7.325943
817.9  24.077672  7.3258278
818  26.13685  7.3257127
818.1  21.758914  7.3255975
818.2  17.736229  7.3254824
818.3  20.616907  7.3253673
818.4  24.001126  7.3252521
818.5  20.805707  7.325137
818.6  20.449244  7.3250219
818.7  19.546655  7.3249068
818.8  16.752943  7.3247917
818.9  19.512322  7.3246766
819  18.239753  7.3245615
819.1  19.923042  7.3244465
819.2  22.311153  7.3243314
819.3  17.727144  7.3242163
819.4  23.395595  7.3241013
819.5  25.288354  7.3239862
819.6  21.680485  7.3238712
819.7  22.18976  7.3237561
819.8  18.122641  7.3236411
819.9  20.117129  7.3235261
820  15.673257  7.3234111
820.1  17.747106  7.323296
820.2  14.803418  7.323181
820.3  18.504575  7.323066
820.4  26.917419  7.322951
820.5  19.509793  7.3228361
820.6  26.553262  7.3227211
820.7  22.561467  7.3226061
820.8  19.589857  7.3224911
820.9  22.703912  7.3223762
821  19.020521  7.3222612
821.1  14.605274  7.3221463
821.2  19.842978  7.3220313
821.3  16.281622  7.3219164
821.4  19.644531  7.3218015
821.5  20.354733  7.3216865
821.6  15.562938  7.3215716
821.7  16.782101  7.3214567
821.8  21.803498  7.3213418
821.9  20.848512  7.3212269
822  22.825719  7.321112
822.1  22.298167  7.3209971
822.2  21.455764  7.3208823
822.3  18.078302  7.3207674
822.4  22.44626  7.3206525
822.5  19.886353  7.3205377
822.6  20.360083  7.3204228
822.7  20.573845  7.320308
822.8  17.712609  7.3201931
822.9  19.908731  7.3200783
823  15.988275  7.3199635
823.1  19.248368  7.3198487
823.2  15.199193  7.3197338
823.3  15.266683  7.319619
823.4  15.956279  7.3195042
823.5  18.23315  7.3193894
823.6  19.128969  7.3192747
823.7  19.496654  7.3191599
823.8  17.153479  7.3190451
823.9  19.615085  7.3189303
824  20.668876  7.3188156
824.1  21.21485  7.3187008
824.2  18.052237  7.3185861
824.3  17.866433  7.3184713
824.4  20.329455  7.3183566
824.5  16.308353  7.3182419
824.6  20.787133  7.3181271
824.7  20.069652  7.3180124
824.8  18.377775  7.3178977
824.9  17.755281  7.317783
825  13.940903  7.3176683
825.1  20.603387  7.3175536
825.2  15.339499  7.3174389
825.3  17.086658  7.3173243
825.4  19.441516  7.3172096
825.5  18.624369  7.3170949
825.6  19.782075  7.3169803
825.7  22.678809  7.3168656
825.8  18.38409  7.316751
825.9  22.057065  7.3166363
826  20.588393  7.3165217
826.1  16.894582  7.3164071
826.2  17.932803  7.3162925
826.3  24.744418  7.3161778
826.4  23.046167  7.3160632
826.5  20.248586  7.3159486
826.6  22.883532  7.315834
826.7  18.418006  7.3157194
826.8  16.677028  7.3156049
826.9  19.157255  7.3154903
827  21.246417  7.3153757
827.1  21.521162  7.3152612
827.2  16.264067  7.3151466
827.3  15.792115  7.3150321
827.4  19.796943  7.3149175
827.5  20.484298  7.314803
827.6  16.987595  7.3146885
827.7  17.449792  7.3145739
827.8  18.417394  7.3144594
827.9  16.209406  7.3143449
828  21.51973  7.3142304
828.1  18.906214  7.3141159
828.2  18.883742  7.3140014
828.3  18.469156  7.3138869
828.4  23.560856  7.3137724
828.5  20.372678  7.313658
828.6  16.847963  7.3135435
828.7  21.923537  7.3134291
828.8  23.522778  7.3133146
828.9  21.526964  7.3132002
829  17.458747  7.3130857
829.1  20.916288  7.3129713
829.2  18.631729  7.3128569
829.3  15.80935  7.3127424
829.4  21.31603  7.312628
829.5  22.823316  7.3125136
829.6  20.345397  7.3123992
829.7  17.422577  7.3122848
829.8  16.398713  7.3121704
829.9  17.719183  7.312056
830  19.361617  7.3119417

