# Created by:        SpecsLab Prodigy, Version 4.84.1-r101483 
#
# XY-Serializer Export Settings:
#   Comment Prefix:           #
#   Output Meta Data:         yes
#   Energy Axis:              Kinetic Energy
#   Count Rate:               Counts per Second
#   Separate Scan Data:       no
#   Separate Channel Data:    no
#   External Channel Data:    yes
#   Transmission Function:    yes
#   Error Bar:                no
#   Operation Results:        yes
#   Time Zone Format:         UTC
#
# Group:                        L-serine pH 7 500 mM
#
# Region:                       VBM
# Spectrum ID:                  623
# Acquisition Date:             03/12/26 06:16:36 UTC
# Analysis Method:              XPS
# Analyzer:                     Phoibos
# Analyzer Lens:                LargeArea:3.5kV
# Analyzer Slit:                5:7x20\B:open
# Scan Mode:                    FixedAnalyzerTransmission
# Curves/Scan:                  1
# Values/Curve:                 251
# Dwell Time:                   0.1
# Excitation Energy:            1130
# Kinetic Energy:               1110
# Pass Energy:                  10
# Bias Voltage:                 220
# Detector Voltage:             1920
# Eff. Workfunction:            0
# Source:                       Monochromator
# Comment:                      

# Cycle: 0
#
# Number of Scans: 2

# Cycle: 0, Curve: 0
#
# Acquisition Date:             03/12/26 06:16:36 UTC
# ColumnLabels:                 energy counts/s transmission
#
1110  4.27205  7.0150741
1110.1  4.230445  7.0149758
1110.2  12.390955  7.0148775
1110.3  11.196145  7.0147792
1110.4  7.182455  7.0146809
1110.5  0.085319  7.0145826
1110.6  4.914681  7.0144843
1110.7  0  7.0143861
1110.8  2.21275  7.0142878
1110.9  10.94915  7.0141895
1111  8.28955  7.0140912
1111.1  3.54855  7.013993
1111.2  0  7.0138947
1111.3  1.749  7.0137965
1111.4  3.251  7.0136982
1111.5  0  7.0136
1111.6  0.54905  7.0135017
1111.7  14.02125  7.0134035
1111.8  4.10215  7.0133053
1111.9  4.2342  7.013207
1112  4.35735  7.0131088
1112.1  12.17495  7.0130106
1112.2  10.56105  7.0129124
1112.3  0  7.0128142
1112.4  1.749  7.012716
1112.5  5.855595  7.0126178
1112.6  13.029824  7.0125196
1112.7  9.365581  7.0124214
1112.8  0  7.0123233
1112.9  0.08085  7.0122251
1113  9.1919  7.0121269
1113.1  5.72725  7.0120288
1113.2  0  7.0119306
1113.3  9.698645  7.0118325
1113.4  10.301355  7.0117343
1113.5  2.00874  7.0116362
1113.6  6.91896  7.011538
1113.7  1.0723  7.0114399
1113.8  0  7.0113418
1113.9  3.5448  7.0112436
1114  5.25525  7.0111455
1114.1  5.387375  7.0110474
1114.2  5.340625  7.0109493
1114.3  8.11885  7.0108512
1114.4  3.9277  7.0107531
1114.5  12.612825  7.010655
1114.6  0.812575  7.0105569
1114.7  2.00425  7.0104589
1114.8  5.515  7.0103608
1114.9  6.74905  7.0102627
1115  6.28525  7.0101646
1115.1  9.44645  7.0100666
1115.2  3.5025  7.0099685
1115.3  7.6039  7.0098705
1115.4  5.38735  7.0097724
1115.5  6.74902  7.0096744
1115.6  11.92788  7.0095763
1115.7  11.6592  7.0094783
1115.8  6.5873  7.0093803
1115.9  2.1787  7.0092823
1116  9.1073  7.0091843
1116.1  25.24185  7.0090862
1116.2  19.36185  7.0089882
1116.3  10.69315  7.0088902
1116.4  3.80455  7.0087922
1116.5  10.8088  7.0086942
1116.6  8.41645  7.0085963
1116.7  1.9702  7.0084983
1116.8  3.0298  7.0084003
1116.9  5.77025  7.0083023
1117  4.1066  7.0082044
1117.1  3.45945  7.0081064
1117.2  3.9745  7.0080085
1117.3  17.9362  7.0079105
1117.4  11.6341  7.0078126
1117.5  14.66015  7.0077146
1117.6  12.05035  7.0076167
1117.7  10.17065  7.0075187
1117.8  9.8338  7.0074208
1117.9  3.455  7.0073229
1118  14.2215  7.007225
1118.1  10.69765  7.0071271
1118.2  1.962  7.0070292
1118.3  25.238819  7.0069313
1118.4  35.183265  7.0068334
1118.5  39.220831  7.0067355
1118.6  19.888835  7.0066376
1118.7  15.50675  7.0065397
1118.8  22.25955  7.0064418
1118.9  20.3065  7.006344
1119  25.76585  7.0062461
1119.1  11.93225  7.0061482
1119.2  15.769615  7.0060504
1119.3  7.344885  7.0059525
1119.4  16.40839  7.0058547
1119.5  19.617105  7.0057569
1119.6  17.387205  7.005659
1119.7  6.20815  7.0055612
1119.8  13.11135  7.0054634
1119.9  23.633845  7.0053655
1120  9.655005  7.0052677
1120.1  17.229915  7.0051699
1120.2  17.430155  7.0050721
1120.3  27.94453  7.0049743
1120.4  24.489434  7.0048765
1120.5  17.527546  7.0047787
1120.6  16.672615  7.0046809
1120.7  16.744524  7.0045832
1120.8  17.399876  7.0044854
1120.9  14.697955  7.0043876
1121  10.46375  7.0042899
1121.1  14.7485  7.0041921
1121.2  8.8854  7.0040943
1121.3  11.9657  7.0039966
1121.4  15.17067  7.0038988
1121.5  23.07658  7.0038011
1121.6  9.15265  7.0037034
1121.7  9.22595  7.0036056
1121.8  12.81684  7.0035079
1121.9  9.795979  7.0034102
1122  14.953181  7.0033125
1122.1  19.873135  7.0032148
1122.2  21.752065  7.0031171
1122.3  9.01305  7.0030194
1122.4  9.102065  7.0029217
1122.5  22.48076  7.002824
1122.6  13.715375  7.0027263
1122.7  21.58285  7.0026286
1122.8  26.4137  7.0025309
1122.9  27.7352  7.0024333
1123  21.574625  7.0023356
1123.1  15.901625  7.0022379
1123.2  20.85627  7.0021403
1123.3  26.237805  7.0020426
1123.4  18.072125  7.001945
1123.5  17.61285  7.0018474
1123.6  7.13565  7.0017497
1123.7  4.1489  7.0016521
1123.8  4.915365  7.0015545
1123.9  5.084635  7.0014569
1124  4.91535  7.0013592
1124.1  9.78705  7.0012616
1124.2  0.2976  7.001164
1124.3  5.4259  7.0010664
1124.4  4.5741  7.0009688
1124.5  0  7.0008712
1124.6  0  7.0007737
1124.7  5.42145  7.0006761
1124.8  13.29405  7.0005785
1124.9  7.395345  7.0004809
1125  13.251705  7.0003834
1125.1  5.63745  7.0002858
1125.2  4.31505  7.0001882
1125.3  0.68495  7.0000907
1125.4  0  6.9999932
1125.5  0.21295  6.9998956
1125.6  8.46395  6.9997981
1125.7  5.59585  6.9997005
1125.8  10.16995  6.999603
1125.9  0.5573  6.9995055
1126  2.65135  6.999408
1126.1  3.19975  6.9993105
1126.2  4.1489  6.999213
1126.3  0  6.9991155
1126.4  0  6.999018
1126.5  4.69795  6.9989205
1126.6  4.6171  6.998823
1126.7  8.9277  6.9987255
1126.8  5.5618  6.998628
1126.9  1.19545  6.9985306
1127  0  6.9984331
1127.1  2.51925  6.9983357
1127.2  2.48075  6.9982382
1127.3  1.1064  6.9981407
1127.4  3.8936  6.9980433
1127.5  0  6.9979459
1127.6  2.13637  6.9978484
1127.7  6.53608  6.997751
1127.8  1.32755  6.9976536
1127.9  1.1064  6.9975562
1128  3.8936  6.9974587
1128.1  0  6.9973613
1128.2  1.1064  6.9972639
1128.3  3.8936  6.9971665
1128.4  1.62585  6.9970691
1128.5  3.37415  6.9969717
1128.6  4.05535  6.9968743
1128.7  5.51495  6.996777
1128.8  0.4297  6.9966796
1128.9  0  6.9965822
1129  0  6.9964849
1129.1  1.8811  6.9963875
1129.2  3.1189  6.9962901
1129.3  1.749  6.9961928
1129.4  3.251  6.9960954
1129.5  0  6.9959981
1129.6  0  6.9959008
1129.7  3.93215  6.9958034
1129.8  6.8811  6.9957061
1129.9  4.18675  6.9956088
1130  0  6.9955115
1130.1  0  6.9954142
1130.2  0  6.9953169
1130.3  0  6.9952196
1130.4  0  6.9951223
1130.5  2.90665  6.995025
1130.6  5.5105  6.9949277
1130.7  6.74905  6.9948304
1130.8  4.8338  6.9947331
1130.9  0  6.9946359
1131  0  6.9945386
1131.1  1.749  6.9944413
1131.2  3.251  6.9943441
1131.3  0  6.9942468
1131.4  0  6.9941496
1131.5  0  6.9940523
1131.6  2.264  6.9939551
1131.7  2.736  6.9938579
1131.8  0  6.9937606
1131.9  0  6.9936634
1132  0.08085  6.9935662
1132.1  8.59605  6.993469
1132.2  7.60455  6.9933718
1132.3  10.472  6.9932746
1132.4  4.48505  6.9931774
1132.5  3.7615  6.9930802
1132.6  4.18295  6.992983
1132.7  4.9577  6.9928858
1132.8  5.85935  6.9927887
1132.9  3.6769  6.9926915
1133  9.9532  6.9925943
1133.1  1.3699  6.9924972
1133.2  0  6.9924
1133.3  0  6.9923028
1133.4  0  6.9922057
1133.5  0  6.9921086
1133.6  1.8811  6.9920114
1133.7  3.1189  6.9919143
1133.8  4.05535  6.9918172
1133.9  2.8213  6.99172
1134  3.12335  6.9916229
1134.1  3.0298  6.9915258
1134.2  1.9702  6.9914287
1134.3  0  6.9913316
1134.4  4.059795  6.9912345
1134.5  0.940205  6.9911374
1134.6  2.90665  6.9910403
1134.7  2.09335  6.9909432
1134.8  0  6.9908462
1134.9  1.749  6.9907491
1135  3.251  6.990652

