# Created by:        SpecsLab Prodigy, Version 4.84.1-r101483 
#
# XY-Serializer Export Settings:
#   Comment Prefix:           #
#   Output Meta Data:         yes
#   Energy Axis:              Kinetic Energy
#   Count Rate:               Counts per Second
#   Separate Scan Data:       no
#   Separate Channel Data:    no
#   External Channel Data:    yes
#   Transmission Function:    yes
#   Error Bar:                no
#   Operation Results:        yes
#   Time Zone Format:         UTC
#
# Group:                        L-serine pH 7 500 mM
#
# Region:                       VBM
# Spectrum ID:                  627
# Acquisition Date:             03/12/26 06:36:15 UTC
# Analysis Method:              XPS
# Analyzer:                     Phoibos
# Analyzer Lens:                LargeArea:3.5kV
# Analyzer Slit:                5:7x20\B:open
# Scan Mode:                    FixedAnalyzerTransmission
# Curves/Scan:                  1
# Values/Curve:                 251
# Dwell Time:                   0.1
# Excitation Energy:            1010
# Kinetic Energy:               990
# Pass Energy:                  10
# Bias Voltage:                 220
# Detector Voltage:             1920
# Eff. Workfunction:            0
# Source:                       Monochromator
# Comment:                      

# Cycle: 0
#
# Number of Scans: 2

# Cycle: 0, Curve: 0
#
# Acquisition Date:             03/12/26 06:36:15 UTC
# ColumnLabels:                 energy counts/s transmission
#
990  14.1919  7.1368315
990.1  15.96982  7.1367268
990.2  18.42538  7.136622
990.3  10.515  7.1365173
990.4  7.4852  7.1364126
990.5  9.77885  7.1363079
990.6  15.8979  7.1362032
990.7  17.6936  7.1360985
990.8  6.2423  7.1359938
990.9  6.5405  7.1358892
991  6.18275  7.1357845
991.1  17.82575  7.1356798
991.2  9.70625  7.1355752
991.3  4.74475  7.1354705
991.4  7.51925  7.1353659
991.5  7.18315  7.1352612
991.6  23.072825  7.1351566
991.7  20.467525  7.1350519
991.8  14.95765  7.1349473
991.9  16.199965  7.1348427
992  10.471985  7.1347381
992.1  4.48945  7.1346335
992.2  5.46825  7.1345289
992.3  11.6637  7.1344243
992.4  15.98765  7.1343197
992.5  9.0591  7.1342151
992.6  13.2857  7.1341105
992.7  20.47204  7.1340059
992.8  6.41221  7.1339013
992.9  7.775219  7.1337968
993  15.126931  7.1336922
993.1  11.45145  7.1335877
993.2  13.84685  7.1334831
993.3  7.3954  7.1333786
993.4  11.96195  7.133274
993.5  16.92787  7.1331695
993.6  18.40823  7.133065
993.7  16.677065  7.1329604
993.8  16.96575  7.1328559
993.9  18.417185  7.1327514
994  18.71475  7.1326469
994.1  18.633895  7.1325424
994.2  26.05963  7.1324379
994.3  21.974675  7.1323334
994.4  5.00375  7.132229
994.5  15.2047  7.1321245
994.6  25.16995  7.13202
994.7  19.28546  7.1319155
994.8  10.16546  7.1318111
994.9  6.45523  7.1317066
995  11.834295  7.1316022
995.1  14.178455  7.1314977
995.2  14.1193  7.1313933
995.3  12.2128  7.1312889
995.4  17.787945  7.1311844
995.5  9.527274  7.13108
995.6  30.885281  7.1309756
995.7  16.79952  7.1308712
995.8  26.626549  7.1307668
995.9  27.646171  7.1306624
996  38.063855  7.130558
996.1  33.633905  7.1304536
996.2  35.779195  7.1303492
996.3  42.169755  7.1302449
996.4  18.523415  7.1301405
996.5  31.95818  7.1300361
996.6  23.977555  7.1299318
996.7  7.6469  7.1298274
996.8  17.18315  7.1297231
996.9  25.20474  7.1296187
997  33.846755  7.1295144
997.1  23.599205  7.12941
997.2  11.579765  7.1293057
997.3  24.493235  7.1292014
997.4  25.45995  7.1290971
997.5  33.931495  7.1289928
997.6  17.65512  7.1288885
997.7  24.740935  7.1287842
997.8  28.412765  7.1286799
997.9  22.526785  7.1285756
998  15.5068  7.1284713
998.1  26.71935  7.128367
998.2  21.106375  7.1282628
998.3  23.246575  7.1281585
998.4  23.7956  7.1280543
998.5  35.737525  7.12795
998.6  50.88079  7.1278458
998.7  65.30713  7.1277415
998.8  62.33902  7.1276373
998.9  51.728984  7.127533
999  53.40313  7.1274288
999.1  49.749236  7.1273246
999.2  65.021385  7.1272204
999.3  66.12726  7.1271162
999.4  60.67737  7.127012
999.5  61.20377  7.1269078
999.6  38.599115  7.1268036
999.7  47.550285  7.1266994
999.8  63.9873  7.1265952
999.9  65.000514  7.1264911
1000  72.927456  7.1263869
1000.1  88.80822  7.1262827
1000.2  66.625814  7.1261786
1000.3  58.522726  7.1260744
1000.4  60.412455  7.1259703
1000.5  38.216265  7.1258661
1000.6  43.885989  7.125762
1000.7  28.382476  7.1256579
1000.8  47.374535  7.1255537
1000.9  53.29013  7.1254496
1001  73.851395  7.1253455
1001.1  70.246924  7.1252414
1001.2  77.143965  7.1251373
1001.3  51.727676  7.1250332
1001.4  54.51967  7.1249291
1001.5  54.14829  7.124825
1001.6  34.625345  7.1247209
1001.7  33.06832  7.1246169
1001.8  70.256745  7.1245128
1001.9  57.871005  7.1244087
1002  36.446335  7.1243047
1002.1  51.396384  7.1242006
1002.2  61.629716  7.1240966
1002.3  65.468843  7.1239925
1002.4  64.262277  7.1238885
1002.5  53.42616  7.1237845
1002.6  45.748245  7.1236805
1002.7  40.499145  7.1235764
1002.8  53.28823  7.1234724
1002.9  35.54909  7.1233684
1003  74.150975  7.1232644
1003.1  72.228545  7.1231604
1003.2  49.854515  7.1230564
1003.3  51.94058  7.1229524
1003.4  29.24244  7.1228485
1003.5  34.2682  7.1227445
1003.6  23.165055  7.1226405
1003.7  17.54885  7.1225366
1003.8  23.264395  7.1224326
1003.9  19.99555  7.1223286
1004  13.940405  7.1222247
1004.1  6.578345  7.1221208
1004.2  4.744755  7.1220168
1004.3  6.23845  7.1219129
1004.4  17.430164  7.121809
1004.5  25.595211  7.1217051
1004.6  4.880575  7.1216011
1004.7  0  7.1214972
1004.8  4.9154  7.1213933
1004.9  5.0846  7.1212894
1005  2.00874  7.1211855
1005.1  2.99126  7.1210817
1005.2  3.15745  7.1209778
1005.3  13.0728  7.1208739
1005.4  16.2467  7.12077
1005.5  2.52305  7.1206662
1005.6  0  7.1205623
1005.7  0.72795  7.1204585
1005.8  7.94895  7.1203546
1005.9  5.2508  7.1202508
1006  6.58351  7.1201469
1006.1  9.48879  7.1200431
1006.2  0  7.1199393
1006.3  4.31505  7.1198355
1006.4  3.71475  7.1197317
1006.5  3.081045  7.1196279
1006.6  5.638155  7.1195241
1006.7  3.251  7.1194203
1006.8  0  7.1193165
1006.9  0  7.1192127
1007  0  7.1191089
1007.1  3.67245  7.1190051
1007.2  4.87235  7.1189014
1007.3  1.4552  7.1187976
1007.4  0  7.1186938
1007.5  0  7.1185901
1007.6  3.7577  7.1184863
1007.7  8.76155  7.1183826
1007.8  4.61265  7.1182789
1007.9  2.8681  7.1181751
1008  8.37485  7.1180714
1008.1  1.62515  7.1179677
1008.2  0  7.117864
1008.3  2.51925  7.1177603
1008.4  11.579095  7.1176566
1008.5  10.604055  7.1175529
1008.6  4.6935  7.1174492
1008.7  5.6041  7.1173455
1008.8  10.123865  7.1172418
1008.9  4.876135  7.1171382
1009  4.9577  7.1170345
1009.1  0.0423  7.1169308
1009.2  4.9532  7.1168272
1009.3  4.324  7.1167235
1009.4  8.97  7.1166199
1009.5  9.7826  7.1165162
1009.6  4.48945  7.1164126
1009.7  2.48075  7.116309
1009.8  8.84307  7.1162053
1009.9  10.9402  7.1161017
1010  9.61712  7.1159981
1010.1  11.66816  7.1158945
1010.2  7.0889  7.1157909
1010.3  8.76664  7.1156873
1010.4  8.07591  7.1155837
1010.5  6.06855  7.1154801
1010.6  3.93145  7.1153765
1010.7  2.13637  7.115273
1010.8  2.86363  7.1151694
1010.9  4.5748  7.1150658
1011  3.07655  7.1149623
1011.1  7.13195  7.1148587
1011.2  5.2167  7.1147552
1011.3  1.8811  7.1146516
1011.4  7.6514  7.1145481
1011.5  5.4675  7.1144446
1011.6  0.8511  7.114341
1011.7  6.02555  7.1142375
1011.8  3.12335  7.114134
1011.9  2.90665  7.1140305
1012  5.59135  7.113927
1012.1  13.80455  7.1138235
1012.2  11.4975  7.11372
1012.3  1.19995  7.1136165
1012.4  3.034265  7.113513
1012.5  4.229735  7.1134096
1012.6  2.736  7.1133061
1012.7  0  7.1132026
1012.8  5.51122  7.1130992
1012.9  16.79132  7.1129957
1013  9.45091  7.1128923
1013.1  8.4172  7.1127888
1013.2  4.82935  7.1126854
1013.3  0  7.112582
1013.4  0  7.1124785
1013.5  3.034265  7.1123751
1013.6  10.298285  7.1122717
1013.7  12.353095  7.1121683
1013.8  7.693655  7.1120649
1013.9  7.34865  7.1119615
1014  4.27205  7.1118581
1014.1  4.31505  7.1117547
1014.2  6.5746  7.1116513
1014.3  14.06355  7.111548
1014.4  2.56605  7.1114446
1014.5  2.48075  7.1113412
1014.6  2.51925  7.1112379
1014.7  3.591595  7.1111345
1014.8  8.072105  7.1110312
1014.9  8.63904  7.1109278
1015  12.21653  7.1108245

