# Created by:        SpecsLab Prodigy, Version 4.84.1-r101483 
#
# XY-Serializer Export Settings:
#   Comment Prefix:           #
#   Output Meta Data:         yes
#   Energy Axis:              Kinetic Energy
#   Count Rate:               Counts per Second
#   Separate Scan Data:       no
#   Separate Channel Data:    no
#   External Channel Data:    yes
#   Transmission Function:    yes
#   Error Bar:                no
#   Operation Results:        yes
#   Time Zone Format:         UTC
#
# Group:                        L-serine pH 7 500 mM
#
# Region:                       N 1s 100
# Spectrum ID:                  633
# Acquisition Date:             03/12/26 07:12:42 UTC
# Analysis Method:              XPS
# Analyzer:                     Phoibos
# Analyzer Lens:                LargeArea:3.5kV
# Analyzer Slit:                5:7x20\B:open
# Scan Mode:                    FixedAnalyzerTransmission
# Curves/Scan:                  1
# Values/Curve:                 401
# Dwell Time:                   0.1
# Excitation Energy:            510
# Kinetic Energy:               90
# Pass Energy:                  10
# Bias Voltage:                 220
# Detector Voltage:             1920
# Eff. Workfunction:            0
# Source:                       Monochromator
# Comment:                      

# Cycle: 0
#
# Number of Scans: 20

# Cycle: 0, Curve: 0
#
# Acquisition Date:             03/12/26 07:12:42 UTC
# ColumnLabels:                 energy counts/s transmission
#
90  42.479841  8.1221682
90.1  36.312111  8.1223662
90.2  34.934201  8.1225636
90.3  39.569232  8.1227602
90.4  34.999217  8.1229561
90.5  32.392599  8.1231513
90.6  32.918946  8.1233458
90.7  38.70504  8.1235395
90.8  32.155145  8.1237326
90.9  29.548995  8.1239249
91  33.494532  8.1241166
91.1  38.319466  8.1243075
91.2  40.487164  8.1244978
91.3  34.895029  8.1246873
91.4  36.458235  8.1248762
91.5  31.71953  8.1250643
91.6  33.041446  8.1252518
91.7  35.977494  8.1254386
91.8  32.450846  8.1256246
91.9  30.659839  8.12581
92  38.142891  8.1259947
92.1  39.21305  8.1261788
92.2  34.430715  8.1263621
92.3  36.57899  8.1265448
92.4  36.780988  8.1267267
92.5  41.965178  8.126908
92.6  30.896804  8.1270887
92.7  30.64608  8.1272686
92.8  38.718847  8.1274479
92.9  36.311814  8.1276265
93  42.304318  8.1278045
93.1  40.856214  8.1279818
93.2  35.579663  8.1281584
93.3  37.786003  8.1283343
93.4  39.975771  8.1285096
93.5  40.356828  8.1286842
93.6  41.904745  8.1288582
93.7  45.118901  8.1290315
93.8  45.281739  8.1292042
93.9  38.447869  8.1293762
94  37.162274  8.1295476
94.1  40.765552  8.1297183
94.2  44.042576  8.1298884
94.3  36.968215  8.1300578
94.4  43.521415  8.1302265
94.5  35.634808  8.1303947
94.6  36.970338  8.1305622
94.7  34.630437  8.130729
94.8  35.621669  8.1308952
94.9  33.546642  8.1310608
95  32.530697  8.1312258
95.1  41.000944  8.1313901
95.2  41.180829  8.1315538
95.3  44.660145  8.1317168
95.4  39.943928  8.1318792
95.5  33.763015  8.132041
95.6  37.670093  8.1322022
95.7  41.794355  8.1323628
95.8  44.26109  8.1325227
95.9  40.267829  8.132682
96  38.769652  8.1328407
96.1  43.540435  8.1329988
96.2  35.385064  8.1331563
96.3  42.916499  8.1333131
96.4  39.05558  8.1334693
96.5  42.461043  8.133625
96.6  38.3724  8.13378
96.7  40.024612  8.1339344
96.8  47.273029  8.1340882
96.9  47.62452  8.1342414
97  41.138991  8.134394
97.1  37.787057  8.134546
97.2  46.27152  8.1346974
97.3  41.907114  8.1348482
97.4  42.827742  8.1349984
97.5  43.578356  8.135148
97.6  40.919896  8.1352971
97.7  41.924459  8.1354455
97.8  44.709682  8.1355933
97.9  37.127829  8.1357406
98  36.908564  8.1358872
98.1  40.368537  8.1360333
98.2  34.829364  8.1361788
98.3  46.550524  8.1363237
98.4  44.521589  8.136468
98.5  39.892181  8.1366118
98.6  37.155177  8.1367549
98.7  41.5213  8.1368975
98.8  36.710695  8.1370395
98.9  39.09895  8.137181
99  37.217216  8.1373219
99.1  38.879433  8.1374622
99.2  37.556381  8.1376019
99.3  36.5573  8.137741
99.4  39.375064  8.1378796
99.5  49.327496  8.1380177
99.6  42.960522  8.1381551
99.7  43.53798  8.138292
99.8  42.862869  8.1384284
99.9  37.805746  8.1385641
100  41.799231  8.1386994
100.1  38.598535  8.138834
100.2  35.035414  8.1389681
100.3  36.690173  8.1391017
100.4  36.056404  8.1392347
100.5  37.868117  8.1393671
100.6  42.274666  8.139499
100.7  47.179433  8.1396304
100.8  44.499125  8.1397612
100.9  44.800985  8.1398914
101  44.584317  8.1400211
101.1  43.476534  8.1401503
101.2  41.654343  8.1402789
101.3  45.629607  8.140407
101.4  40.961092  8.1405345
101.5  37.594923  8.1406616
101.6  37.943035  8.140788
101.7  41.666366  8.140914
101.8  38.535495  8.1410394
101.9  41.057586  8.1411642
102  39.460438  8.1412886
102.1  40.713583  8.1414124
102.2  40.579541  8.1415356
102.3  38.839711  8.1416584
102.4  41.009113  8.1417806
102.5  45.2478  8.1419023
102.6  37.182095  8.1420235
102.7  38.687596  8.1421441
102.8  39.45635  8.1422642
102.9  44.096733  8.1423838
103  44.047753  8.1425029
103.1  41.850759  8.1426215
103.2  44.827094  8.1427396
103.3  45.562553  8.1428571
103.4  41.47584  8.1429741
103.5  35.163857  8.1430906
103.6  38.957772  8.1432066
103.7  41.1061  8.1433221
103.8  43.181644  8.1434371
103.9  36.794246  8.1435516
104  41.439885  8.1436655
104.1  44.110494  8.143779
104.2  41.90532  8.143892
104.3  42.258969  8.1440044
104.4  38.106873  8.1441164
104.5  41.855984  8.1442278
104.6  47.944886  8.1443388
104.7  46.331452  8.1444492
104.8  47.887733  8.1445592
104.9  48.988912  8.1446687
105  37.967108  8.1447776
105.1  37.814504  8.1448861
105.2  49.087145  8.1449941
105.3  42.551178  8.1451016
105.4  45.008119  8.1452086
105.5  41.525119  8.1453151
105.6  46.590185  8.1454211
105.7  48.78192  8.1455267
105.8  45.388741  8.1456317
105.9  41.526021  8.1457363
106  45.904345  8.1458404
106.1  45.164587  8.145944
106.2  43.343132  8.1460471
106.3  49.929631  8.1461498
106.4  40.760632  8.146252
106.5  41.572347  8.1463536
106.6  42.075718  8.1464549
106.7  41.067155  8.1465556
106.8  36.789492  8.1466559
106.9  32.785773  8.1467557
107  39.183828  8.146855
107.1  40.588271  8.1469539
107.2  42.969551  8.1470522
107.3  40.641554  8.1471502
107.4  35.999082  8.1472476
107.5  37.358874  8.1473446
107.6  41.923037  8.1474411
107.7  44.497958  8.1475372
107.8  49.194571  8.1476328
107.9  43.077627  8.1477279
108  47.94615  8.1478226
108.1  42.430796  8.1479168
108.2  45.133417  8.1480105
108.3  48.212779  8.1481038
108.4  41.362162  8.1481967
108.5  45.640788  8.1482891
108.6  53.438787  8.148381
108.7  42.505222  8.1484725
108.8  44.506776  8.1485635
108.9  52.431559  8.1486541
109  53.519989  8.1487442
109.1  49.421825  8.1488339
109.2  48.730901  8.1489231
109.3  54.304619  8.1490119
109.4  51.38191  8.1491002
109.5  46.087555  8.1491881
109.6  44.235972  8.1492756
109.7  50.430119  8.1493626
109.8  37.380739  8.1494492
109.9  49.107664  8.1495353
110  52.473825  8.149621
110.1  46.742029  8.1497062
110.2  47.453373  8.149791
110.3  46.903207  8.1498754
110.4  39.682603  8.1499594
110.5  44.83734  8.1500429
110.6  39.450985  8.1501259
110.7  40.368021  8.1502086
110.8  50.189284  8.1502908
110.9  47.282513  8.1503726
111  45.057074  8.1504539
111.1  44.997713  8.1505348
111.2  49.628685  8.1506153
111.3  48.232296  8.1506954
111.4  49.100648  8.150775
111.5  46.942488  8.1508542
111.6  55.787051  8.150933
111.7  43.307786  8.1510114
111.8  47.264674  8.1510893
111.9  42.647899  8.1511669
112  45.067296  8.151244
112.1  52.339012  8.1513207
112.2  49.173833  8.1513969
112.3  52.373286  8.1514728
112.4  50.53082  8.1515482
112.5  47.473066  8.1516233
112.6  42.870548  8.1516979
112.7  42.144141  8.1517721
112.8  51.808358  8.1518458
112.9  56.466483  8.1519192
113  47.39798  8.1519922
113.1  53.265666  8.1520647
113.2  46.782276  8.1521369
113.3  49.529142  8.1522086
113.4  51.593458  8.1522799
113.5  48.248925  8.1523509
113.6  53.82616  8.1524214
113.7  47.255119  8.1524915
113.8  49.254216  8.1525612
113.9  47.960947  8.1526305
114  41.483209  8.1526995
114.1  47.941891  8.152768
114.2  38.108368  8.1528361
114.3  39.853593  8.1529038
114.4  43.191312  8.1529711
114.5  55.688708  8.153038
114.6  48.451338  8.1531046
114.7  46.62861  8.1531707
114.8  46.688416  8.1532364
114.9  44.950597  8.1533018
115  45.512934  8.1533667
115.1  44.717452  8.1534313
115.2  39.630429  8.1534954
115.3  45.548619  8.1535592
115.4  46.44898  8.1536226
115.5  45.889777  8.1536856
115.6  48.412833  8.1537482
115.7  51.281043  8.1538105
115.8  50.575618  8.1538723
115.9  53.053364  8.1539338
116  41.818806  8.1539948
116.1  46.156858  8.1540555
116.2  52.413427  8.1541159
116.3  48.294659  8.1541758
116.4  40.060525  8.1542353
116.5  43.546119  8.1542945
116.6  49.308525  8.1543533
116.7  47.528953  8.1544117
116.8  48.547347  8.1544698
116.9  47.465892  8.1545274
117  40.822767  8.1545847
117.1  46.900051  8.1546416
117.2  45.137506  8.1546982
117.3  50.648603  8.1547544
117.4  48.827367  8.1548102
117.5  48.024985  8.1548656
117.6  56.036814  8.1549206
117.7  48.922681  8.1549753
117.8  51.018639  8.1550296
117.9  55.597398  8.1550836
118  53.090676  8.1551372
118.1  41.638298  8.1551904
118.2  46.238768  8.1552433
118.3  45.922772  8.1552958
118.4  46.488118  8.1553479
118.5  50.435657  8.1553996
118.6  48.535829  8.155451
118.7  55.067636  8.1555021
118.8  46.293311  8.1555528
118.9  47.321821  8.1556031
119  49.737014  8.155653
119.1  51.548312  8.1557027
119.2  45.995012  8.1557519
119.3  49.371352  8.1558008
119.4  47.503206  8.1558493
119.5  50.353751  8.1558975
119.6  49.177942  8.1559453
119.7  58.768493  8.1559928
119.8  56.229064  8.1560399
119.9  44.001525  8.1560867
120  47.448609  8.1561331
120.1  53.96519  8.1561792
120.2  56.389429  8.1562249
120.3  50.513486  8.1562703
120.4  50.042559  8.1563153
120.5  51.060632  8.15636
120.6  50.735892  8.1564043
120.7  52.19513  8.1564483
120.8  48.668341  8.1564919
120.9  49.374523  8.1565352
121  50.659467  8.1565781
121.1  53.391445  8.1566207
121.2  54.235565  8.156663
121.3  51.814667  8.1567049
121.4  54.092358  8.1567465
121.5  53.732852  8.1567877
121.6  53.214676  8.1568286
121.7  53.203981  8.1568692
121.8  52.101255  8.1569094
121.9  51.740063  8.1569493
122  44.409278  8.1569889
122.1  49.791484  8.1570281
122.2  54.593617  8.157067
122.3  54.45812  8.1571055
122.4  52.328629  8.1571437
122.5  54.297547  8.1571816
122.6  50.850439  8.1572192
122.7  48.310603  8.1572564
122.8  45.286831  8.1572933
122.9  45.818292  8.1573298
123  53.751607  8.1573661
123.1  51.193778  8.157402
123.2  49.314728  8.1574375
123.3  58.695342  8.1574728
123.4  51.849775  8.1575077
123.5  48.239034  8.1575423
123.6  45.327646  8.1575766
123.7  48.957196  8.1576105
123.8  51.084775  8.1576442
123.9  52.054545  8.1576775
124  53.155597  8.1577104
124.1  52.365405  8.1577431
124.2  48.135941  8.1577754
124.3  51.054438  8.1578074
124.4  54.71199  8.1578391
124.5  52.968355  8.1578705
124.6  52.712776  8.1579016
124.7  50.97465  8.1579323
124.8  43.855266  8.1579627
124.9  54.201161  8.1579929
125  51.568891  8.1580226
125.1  53.868147  8.1580521
125.2  55.667979  8.1580813
125.3  50.815505  8.1581101
125.4  56.487044  8.1581387
125.5  50.925999  8.1581669
125.6  49.228591  8.1581948
125.7  53.454504  8.1582224
125.8  52.875352  8.1582497
125.9  50.914875  8.1582767
126  52.165826  8.1583034
126.1  49.113205  8.1583298
126.2  50.749877  8.1583558
126.3  56.84001  8.1583816
126.4  56.225915  8.158407
126.5  53.119806  8.1584322
126.6  58.15783  8.158457
126.7  59.219513  8.1584816
126.8  48.894648  8.1585058
126.9  53.764189  8.1585297
127  56.521485  8.1585533
127.1  53.60493  8.1585767
127.2  54.697282  8.1585997
127.3  58.181063  8.1586224
127.4  45.807191  8.1586448
127.5  50.206634  8.158667
127.6  50.356988  8.1586888
127.7  52.618339  8.1587103
127.8  61.800578  8.1587315
127.9  54.374323  8.1587525
128  55.884147  8.1587731
128.1  56.86308  8.1587934
128.2  53.09546  8.1588135
128.3  54.277383  8.1588332
128.4  49.44659  8.1588527
128.5  56.934554  8.1588719
128.6  58.961594  8.1588907
128.7  56.752377  8.1589093
128.8  53.761099  8.1589276
128.9  54.22802  8.1589456
129  52.910787  8.1589633
129.1  55.803102  8.1589807
129.2  57.664928  8.1589979
129.3  57.747921  8.1590147
129.4  62.662223  8.1590313
129.5  66.736936  8.1590475
129.6  59.810499  8.1590635
129.7  60.440468  8.1590792
129.8  61.655868  8.1590946
129.9  58.065672  8.1591098
130  58.730686  8.1591246

