# Created by:        SpecsLab Prodigy, Version 4.84.1-r101483 
#
# XY-Serializer Export Settings:
#   Comment Prefix:           #
#   Output Meta Data:         yes
#   Energy Axis:              Kinetic Energy
#   Count Rate:               Counts per Second
#   Separate Scan Data:       no
#   Separate Channel Data:    no
#   External Channel Data:    yes
#   Transmission Function:    yes
#   Error Bar:                no
#   Operation Results:        yes
#   Time Zone Format:         UTC
#
# Group:                        L-serine pH 7 500 mM
#
# Region:                       VBM
# Spectrum ID:                  673
# Acquisition Date:             03/12/26 13:43:09 UTC
# Analysis Method:              XPS
# Analyzer:                     Phoibos
# Analyzer Lens:                LargeArea:3.5kV
# Analyzer Slit:                5:7x20\B:open
# Scan Mode:                    FixedAnalyzerTransmission
# Curves/Scan:                  1
# Values/Curve:                 251
# Dwell Time:                   0.1
# Excitation Energy:            360
# Kinetic Energy:               340
# Pass Energy:                  10
# Bias Voltage:                 220
# Detector Voltage:             1920
# Eff. Workfunction:            0
# Source:                       Monochromator
# Comment:                      

# Cycle: 0
#
# Number of Scans: 2

# Cycle: 0, Curve: 0
#
# Acquisition Date:             03/12/26 13:43:09 UTC
# ColumnLabels:                 energy counts/s transmission
#
340  10153.046  7.9482376
340.1  10658.6  7.948099
340.2  10597.478  7.9479604
340.3  10439.572  7.9478218
340.4  10172.786  7.9476831
340.5  9908.8466  7.9475445
340.6  9656.3733  7.9474058
340.7  9334.7411  7.9472672
340.8  9316.4024  7.9471285
340.9  8926.7838  7.9469898
341  8814.0588  7.9468511
341.1  8880.1116  7.9467125
341.2  8744.7723  7.9465738
341.3  8808.8857  7.9464351
341.4  8208.9973  7.9462964
341.5  7694.6347  7.9461577
341.6  7861.5979  7.946019
341.7  7690.9999  7.9458802
341.8  7766.5137  7.9457415
341.9  7508.6919  7.9456028
342  7587.9288  7.945464
342.1  7286.2926  7.9453253
342.2  7167.7282  7.9451866
342.3  7047.5238  7.9450478
342.4  7371.5035  7.944909
342.5  7346.3167  7.9447703
342.6  7280.2602  7.9446315
342.7  6909.1107  7.9444927
342.8  7318.8279  7.9443539
342.9  7306.796  7.9442152
343  7766.9983  7.9440764
343.1  8668.8251  7.9439376
343.2  8623.5645  7.9437988
343.3  9003.8451  7.9436599
343.4  9502.5557  7.9435211
343.5  10562.525  7.9433823
343.6  11080.47  7.9432435
343.7  12008.887  7.9431046
343.8  12730.018  7.9429658
343.9  13593.476  7.942827
344  15133.411  7.9426881
344.1  17255.953  7.9425492
344.2  18508.708  7.9424104
344.3  20377.205  7.9422715
344.4  22109.232  7.9421326
344.5  24027.7  7.9419938
344.6  27072.656  7.9418549
344.7  29268.82  7.941716
344.8  31881.852  7.9415771
344.9  34855.535  7.9414382
345  36840.143  7.9412993
345.1  38757.234  7.9411604
345.2  40949.564  7.9410215
345.3  44194.252  7.9408825
345.4  45867.948  7.9407436
345.5  47538.518  7.9406047
345.6  48351.811  7.9404657
345.7  49025.856  7.9403268
345.8  49995.265  7.9401878
345.9  50111.718  7.9400489
346  50462.956  7.9399099
346.1  50189.73  7.939771
346.2  50292.453  7.939632
346.3  49743.702  7.939493
346.4  49679.585  7.939354
346.5  49638.126  7.9392151
346.6  48970.514  7.9390761
346.7  47785.275  7.9389371
346.8  47048.812  7.9387981
346.9  45294.43  7.9386591
347  43243.307  7.9385201
347.1  42691.818  7.938381
347.2  39879.774  7.938242
347.3  37575.538  7.938103
347.4  35796.076  7.937964
347.5  33486.557  7.9378249
347.6  31592.507  7.9376859
347.7  30684.082  7.9375468
347.8  29721.016  7.9374078
347.9  29608.031  7.9372687
348  31176.254  7.9371297
348.1  34210.426  7.9369906
348.2  37881.528  7.9368515
348.3  43325.451  7.9367125
348.4  49870.218  7.9365734
348.5  57666.547  7.9364343
348.6  65349.009  7.9362952
348.7  73082.298  7.9361561
348.8  81038.81  7.936017
348.9  87608.232  7.9358779
349  91991.209  7.9357388
349.1  94874.87  7.9355997
349.2  96296.754  7.9354606
349.3  95529.552  7.9353214
349.4  92727.161  7.9351823
349.5  89332.158  7.9350432
349.6  84225.313  7.934904
349.7  81866.654  7.9347649
349.8  78350.88  7.9346257
349.9  75187.196  7.9344866
350  74496.631  7.9343474
350.1  73428.437  7.9342083
350.2  73862.34  7.9340691
350.3  73678.915  7.9339299
350.4  75159.607  7.9337908
350.5  76893.86  7.9336516
350.6  78650.301  7.9335124
350.7  83412.744  7.9333732
350.8  88478.862  7.933234
350.9  93943.645  7.9330948
351  105498.82  7.9329556
351.1  123128.19  7.9328164
351.2  135602.09  7.9326772
351.3  128251.42  7.932538
351.4  103999.83  7.9323988
351.5  80533.901  7.9322595
351.6  69490.888  7.9321203
351.7  70638.635  7.9319811
351.8  74575.927  7.9318418
351.9  78991.443  7.9317026
352  85594.119  7.9315633
352.1  90077.272  7.9314241
352.2  96838.027  7.9312848
352.3  101578.04  7.9311456
352.4  105145.95  7.9310063
352.5  105002.13  7.930867
352.6  104236.72  7.9307278
352.7  102379.7  7.9305885
352.8  97846.465  7.9304492
352.9  91410.835  7.9303099
353  82990.576  7.9301706
353.1  75302.712  7.9300313
353.2  65250.144  7.929892
353.3  55967.369  7.9297527
353.4  45804.17  7.9296134
353.5  37080.956  7.9294741
353.6  29012.961  7.9293348
353.7  21934.276  7.9291955
353.8  16454.915  7.9290562
353.9  12821.852  7.9289168
354  9960.2117  7.9287775
354.1  8209.9927  7.9286382
354.2  6735.9837  7.9284988
354.3  5579.7269  7.9283595
354.4  4891.6034  7.9282201
354.5  4211.1292  7.9280808
354.6  3754.43  7.9279414
354.7  3303.954  7.9278021
354.8  2685.7279  7.9276627
354.9  2397.119  7.9275233
355  1962.8724  7.927384
355.1  1616.1484  7.9272446
355.2  1334.3108  7.9271052
355.3  1168.0099  7.9269658
355.4  965.0791  7.9268265
355.5  808.7094  7.9266871
355.6  735.78738  7.9265477
355.7  769.47215  7.9264083
355.8  729.7848  7.9262689
355.9  522.11614  7.9261295
356  536.83866  7.9259901
356.1  553.02546  7.9258506
356.2  570.64114  7.9257112
356.3  529.75971  7.9255718
356.4  406.58249  7.9254324
356.5  492.42077  7.9252929
356.6  553.05509  7.9251535
356.7  422.87535  7.9250141
356.8  419.84316  7.9248746
356.9  458.05924  7.9247352
357  413.63206  7.9245957
357.1  417.26235  7.9244563
357.2  451.15036  7.9243168
357.3  418.26939  7.9241774
357.4  402.15214  7.9240379
357.5  395.25807  7.9238985
357.6  405.55469  7.923759
357.7  343.47142  7.9236195
357.8  354.87167  7.92348
357.9  343.94779  7.9233406
358  344.78018  7.9232011
358.1  356.76984  7.9230616
358.2  334.42065  7.9229221
358.3  357.85211  7.9227826
358.4  334.71325  7.9226431
358.5  262.17688  7.9225036
358.6  269.44132  7.9223641
358.7  364.89765  7.9222246
358.8  307.60062  7.9220851
358.9  282.01562  7.9219456
359  360.98153  7.9218061
359.1  404.2806  7.9216665
359.2  279.5533  7.921527
359.3  323.90443  7.9213875
359.4  331.91858  7.921248
359.5  291.35714  7.9211084
359.6  342.3113  7.9209689
359.7  316.25797  7.9208293
359.8  292.71401  7.9206898
359.9  235.44611  7.9205503
360  245.50747  7.9204107
360.1  286.47639  7.9202712
360.2  307.86806  7.9201316
360.3  312.48827  7.919992
360.4  304.85311  7.9198525
360.5  318.16259  7.9197129
360.6  309.26299  7.9195733
360.7  353.6151  7.9194338
360.8  344.89331  7.9192942
360.9  321.90586  7.9191546
361  351.99164  7.919015
361.1  304.4812  7.9188754
361.2  366.27245  7.9187359
361.3  315.63113  7.9185963
361.4  328.89757  7.9184567
361.5  380.25399  7.9183171
361.6  332.16217  7.9181775
361.7  420.07791  7.9180379
361.8  336.9476  7.9178983
361.9  273.00468  7.9177586
362  291.62893  7.917619
362.1  275.85661  7.9174794
362.2  345.12556  7.9173398
362.3  358.74952  7.9172002
362.4  343.90405  7.9170606
362.5  329.11242  7.9169209
362.6  342.96184  7.9167813
362.7  320.52899  7.9166417
362.8  331.3141  7.916502
362.9  326.97257  7.9163624
363  335.42787  7.9162227
363.1  351.24981  7.9160831
363.2  276.27608  7.9159434
363.3  387.48692  7.9158038
363.4  314.04049  7.9156641
363.5  273.73504  7.9155245
363.6  290.21862  7.9153848
363.7  284.31451  7.9152452
363.8  331.68425  7.9151055
363.9  245.06251  7.9149658
364  336.28001  7.9148262
364.1  314.8441  7.9146865
364.2  298.54712  7.9145468
364.3  382.26014  7.9144071
364.4  304.35992  7.9142675
364.5  275.21092  7.9141278
364.6  279.63685  7.9139881
364.7  298.35652  7.9138484
364.8  261.14268  7.9137087
364.9  264.99774  7.913569
365  296.41209  7.9134293

