# Created by:        SpecsLab Prodigy, Version 4.84.1-r101483 
#
# XY-Serializer Export Settings:
#   Comment Prefix:           #
#   Output Meta Data:         yes
#   Energy Axis:              Kinetic Energy
#   Count Rate:               Counts per Second
#   Separate Scan Data:       no
#   Separate Channel Data:    no
#   External Channel Data:    yes
#   Transmission Function:    yes
#   Error Bar:                no
#   Operation Results:        yes
#   Time Zone Format:         UTC
#
# Group:                        L-serine pH 7 500 mM
#
# Region:                       C 1s 400
# Spectrum ID:                  638
# Acquisition Date:             03/12/26 07:39:36 UTC
# Analysis Method:              XPS
# Analyzer:                     Phoibos
# Analyzer Lens:                LargeArea:3.5kV
# Analyzer Slit:                5:7x20\B:open
# Scan Mode:                    FixedAnalyzerTransmission
# Curves/Scan:                  1
# Values/Curve:                 251
# Dwell Time:                   0.1
# Excitation Energy:            690
# Kinetic Energy:               390
# Pass Energy:                  10
# Bias Voltage:                 220
# Detector Voltage:             1920
# Eff. Workfunction:            0
# Source:                       Monochromator
# Comment:                      

# Cycle: 0
#
# Number of Scans: 15

# Cycle: 0, Curve: 0
#
# Acquisition Date:             03/12/26 07:39:36 UTC
# ColumnLabels:                 energy counts/s transmission
#
390  13634.147  7.8784526
390.1  13649.542  7.8783126
390.2  13795.016  7.8781726
390.3  13772.535  7.8780326
390.4  13670.731  7.8778926
390.5  13737.943  7.8777526
390.6  13673.95  7.8776126
390.7  13751.481  7.8774726
390.8  13821.308  7.8773326
390.9  13762.41  7.8771926
391  13877.037  7.8770526
391.1  13775.853  7.8769125
391.2  13713.753  7.8767725
391.3  13869.431  7.8766325
391.4  13619.745  7.8764925
391.5  13655.229  7.8763525
391.6  13825.124  7.8762125
391.7  13844.725  7.8760725
391.8  13875.585  7.8759325
391.9  13811.802  7.8757925
392  13860.578  7.8756525
392.1  13837.275  7.8755125
392.2  13854.03  7.8753725
392.3  13854.23  7.8752325
392.4  13751.301  7.8750925
392.5  13825.701  7.8749525
392.6  13854.466  7.8748125
392.7  13659.297  7.8746725
392.8  13927.869  7.8745325
392.9  13803.386  7.8743925
393  13809.353  7.8742525
393.1  13760.338  7.8741125
393.2  13767.374  7.8739725
393.3  13812.586  7.8738325
393.4  13909.046  7.8736925
393.5  13938.78  7.8735525
393.6  13901.014  7.8734125
393.7  13850.473  7.8732725
393.8  13864.675  7.8731325
393.9  13782.781  7.8729925
394  13909.605  7.8728525
394.1  13998.658  7.8727125
394.2  13909.625  7.8725725
394.3  13895.425  7.8724325
394.4  13907.814  7.8722925
394.5  13953.86  7.8721525
394.6  14070.366  7.8720125
394.7  13955.237  7.8718725
394.8  13818.781  7.8717325
394.9  13860.999  7.8715926
395  13821.262  7.8714526
395.1  13738.102  7.8713126
395.2  13888.255  7.8711726
395.3  13899.029  7.8710326
395.4  13906.392  7.8708926
395.5  13919.332  7.8707526
395.6  13983.784  7.8706126
395.7  14000.214  7.8704726
395.8  13886.367  7.8703326
395.9  13848.24  7.8701926
396  14009.766  7.8700527
396.1  13894.544  7.8699127
396.2  13839.044  7.8697727
396.3  13821.473  7.8696327
396.4  13992.504  7.8694927
396.5  13871.023  7.8693527
396.6  13791.198  7.8692127
396.7  13929.335  7.8690728
396.8  14001.562  7.8689328
396.9  13905.812  7.8687928
397  13987.321  7.8686528
397.1  13878.692  7.8685128
397.2  14115.548  7.8683728
397.3  13970.593  7.8682329
397.4  14018.948  7.8680929
397.5  13881.459  7.8679529
397.6  13811.712  7.8678129
397.7  13953.553  7.867673
397.8  13751.832  7.867533
397.9  13836.693  7.867393
398  13849.412  7.867253
398.1  13878.916  7.8671131
398.2  13906.268  7.8669731
398.3  13916.834  7.8668331
398.4  13851.677  7.8666931
398.5  13795.698  7.8665532
398.6  13954.29  7.8664132
398.7  14028.31  7.8662732
398.8  14142.902  7.8661333
398.9  14010.029  7.8659933
399  13967.711  7.8658533
399.1  13958.278  7.8657133
399.2  14039.513  7.8655734
399.3  14049.728  7.8654334
399.4  14136.79  7.8652935
399.5  14034.946  7.8651535
399.6  13947.445  7.8650135
399.7  14004.808  7.8648736
399.8  14078.322  7.8647336
399.9  13993.5  7.8645936
400  14021.439  7.8644537
400.1  14062.638  7.8643137
400.2  14239.235  7.8641738
400.3  14085.206  7.8640338
400.4  14257.477  7.8638939
400.5  14228.944  7.8637539
400.6  14312.396  7.8636139
400.7  14577.014  7.863474
400.8  14478.104  7.863334
400.9  14620.189  7.8631941
401  14757.449  7.8630541
401.1  14867.05  7.8629142
401.2  15196.378  7.8627742
401.3  15498.348  7.8626343
401.4  15550.657  7.8624943
401.5  15412.557  7.8623544
401.6  15448.829  7.8622145
401.7  15277.03  7.8620745
401.8  15132.156  7.8619346
401.9  14962.612  7.8617946
402  14995.543  7.8616547
402.1  14834.379  7.8615148
402.2  14640.933  7.8613748
402.3  14736.256  7.8612349
402.4  14731.491  7.8610949
402.5  14803.392  7.860955
402.6  14823.875  7.8608151
402.7  15109.24  7.8606751
402.8  15348.219  7.8605352
402.9  15657.866  7.8603953
403  15935.962  7.8602553
403.1  16226.043  7.8601154
403.2  16561.09  7.8599755
403.3  16688.486  7.8598356
403.4  16839.913  7.8596956
403.5  16688.097  7.8595557
403.6  16553.145  7.8594158
403.7  16567.564  7.8592759
403.8  16207.011  7.859136
403.9  15901.607  7.858996
404  15547.615  7.8588561
404.1  15205.814  7.8587162
404.2  14856.161  7.8585763
404.3  14712.722  7.8584364
404.4  14532.722  7.8582965
404.5  14446.758  7.8581565
404.6  14484.872  7.8580166
404.7  14340.944  7.8578767
404.8  14319.438  7.8577368
404.9  14325.916  7.8575969
405  14305.76  7.857457
405.1  14199.488  7.8573171
405.2  14186.386  7.8571772
405.3  14327.529  7.8570373
405.4  14421.186  7.8568974
405.5  14395.558  7.8567575
405.6  14351.889  7.8566176
405.7  14340.624  7.8564777
405.8  14344.544  7.8563378
405.9  14084.727  7.8561979
406  14158.722  7.856058
406.1  14302.081  7.8559181
406.2  14375.123  7.8557782
406.3  14397.605  7.8556383
406.4  14301.689  7.8554985
406.5  14146.308  7.8553586
406.6  14366.308  7.8552187
406.7  14313.968  7.8550788
406.8  14441.949  7.8549389
406.9  14301.675  7.854799
407  14415.267  7.8546592
407.1  14258.387  7.8545193
407.2  14282.024  7.8543794
407.3  14451.885  7.8542395
407.4  14335.835  7.8540997
407.5  14296.195  7.8539598
407.6  14315.125  7.8538199
407.7  14271.644  7.85368
407.8  14401.755  7.8535402
407.9  14165.32  7.8534003
408  14276.288  7.8532605
408.1  14353.296  7.8531206
408.2  14326.784  7.8529807
408.3  14468.798  7.8528409
408.4  14340.277  7.852701
408.5  14433.376  7.8525612
408.6  14543.148  7.8524213
408.7  14515.459  7.8522814
408.8  14426.921  7.8521416
408.9  14296.257  7.8520017
409  14426.733  7.8518619
409.1  14353.046  7.851722
409.2  14347.905  7.8515822
409.3  14551.166  7.8514424
409.4  14456.86  7.8513025
409.5  14370.642  7.8511627
409.6  14377.244  7.8510228
409.7  14397.43  7.850883
409.8  14448.421  7.8507432
409.9  14461.034  7.8506033
410  14493.181  7.8504635
410.1  14370.962  7.8503237
410.2  14418.264  7.8501838
410.3  14495.163  7.850044
410.4  14594.786  7.8499042
410.5  14562.709  7.8497643
410.6  14478.58  7.8496245
410.7  14554.777  7.8494847
410.8  14477.627  7.8493449
410.9  14562.548  7.8492051
411  14465.741  7.8490652
411.1  14563.219  7.8489254
411.2  14618.082  7.8487856
411.3  14684.952  7.8486458
411.4  14590.32  7.848506
411.5  14623.473  7.8483662
411.6  14561.475  7.8482264
411.7  14626.496  7.8480866
411.8  14590.047  7.8479468
411.9  14574.169  7.847807
412  14485.908  7.8476672
412.1  14449.211  7.8475274
412.2  14372.063  7.8473876
412.3  14687.993  7.8472478
412.4  14604.594  7.847108
412.5  14629.264  7.8469682
412.6  14544.594  7.8468284
412.7  14708.905  7.8466886
412.8  14578.981  7.8465488
412.9  14507.926  7.8464091
413  14639.885  7.8462693
413.1  14630.765  7.8461295
413.2  14664.478  7.8459897
413.3  14705.067  7.8458499
413.4  14709.301  7.8457102
413.5  14609.757  7.8455704
413.6  14734.129  7.8454306
413.7  14788.29  7.8452909
413.8  14728.632  7.8451511
413.9  14650.367  7.8450113
414  14675.745  7.8448716
414.1  14658.628  7.8447318
414.2  14495.834  7.8445921
414.3  14624.486  7.8444523
414.4  14729.505  7.8443125
414.5  14781.522  7.8441728
414.6  14788.322  7.844033
414.7  14744.452  7.8438933
414.8  14730.135  7.8437535
414.9  14753.969  7.8436138
415  14779.596  7.8434741

