# Created by:        SpecsLab Prodigy, Version 4.84.1-r101483 
#
# XY-Serializer Export Settings:
#   Comment Prefix:           #
#   Output Meta Data:         yes
#   Energy Axis:              Kinetic Energy
#   Count Rate:               Counts per Second
#   Separate Scan Data:       no
#   Separate Channel Data:    no
#   External Channel Data:    yes
#   Transmission Function:    yes
#   Error Bar:                no
#   Operation Results:        yes
#   Time Zone Format:         UTC
#
# Group:                        L-serine pH 7 500 mM
#
# Region:                       N 1s 300
# Spectrum ID:                  651
# Acquisition Date:             03/12/26 09:22:48 UTC
# Analysis Method:              XPS
# Analyzer:                     Phoibos
# Analyzer Lens:                LargeArea:3.5kV
# Analyzer Slit:                5:7x20\B:open
# Scan Mode:                    FixedAnalyzerTransmission
# Curves/Scan:                  1
# Values/Curve:                 401
# Dwell Time:                   0.1
# Excitation Energy:            710
# Kinetic Energy:               290
# Pass Energy:                  10
# Bias Voltage:                 220
# Detector Voltage:             1920
# Eff. Workfunction:            0
# Source:                       Monochromator
# Comment:                      

# Cycle: 0
#
# Number of Scans: 12

# Cycle: 0, Curve: 0
#
# Acquisition Date:             03/12/26 09:22:48 UTC
# ColumnLabels:                 energy counts/s transmission
#
290  8386.4165  8.0163569
290.1  8483.0964  8.016224
290.2  8627.3636  8.0160911
290.3  8626.5285  8.0159582
290.4  8458.5585  8.0158252
290.5  8572.4495  8.0156923
290.6  8543.4653  8.0155593
290.7  8571.2303  8.0154263
290.8  8591.9783  8.0152933
290.9  8622.2643  8.0151603
291  8599.9918  8.0150272
291.1  8514.9394  8.0148941
291.2  8530.1369  8.014761
291.3  8634.4104  8.0146279
291.4  8563.4746  8.0144948
291.5  8506.6733  8.0143617
291.6  8619.8967  8.0142285
291.7  8676.3053  8.0140953
291.8  8493.018  8.0139621
291.9  8665.6424  8.0138289
292  8683.1965  8.0136957
292.1  8589.237  8.0135625
292.2  8723.0988  8.0134292
292.3  8792.5285  8.0132959
292.4  8694.8216  8.0131626
292.5  8680.9116  8.0130293
292.6  8744.668  8.012896
292.7  8632.1766  8.0127626
292.8  8628.9386  8.0126293
292.9  8781.1478  8.0124959
293  8629.7829  8.0123625
293.1  8560.5836  8.0122291
293.2  8663.9834  8.0120956
293.3  8513.628  8.0119622
293.4  8608.7071  8.0118287
293.5  8607.2287  8.0116952
293.6  8678.8836  8.0115617
293.7  8690.4741  8.0114282
293.8  8740.9977  8.0112947
293.9  8674.0539  8.0111611
294  8696.124  8.0110275
294.1  8743.1775  8.010894
294.2  8778.0495  8.0107604
294.3  8668.5387  8.0106267
294.4  8656.132  8.0104931
294.5  8601.8074  8.0103594
294.6  8726.6261  8.0102258
294.7  8709.5164  8.0100921
294.8  8810.8502  8.0099584
294.9  8749.5148  8.0098247
295  8685.1611  8.0096909
295.1  8720.3084  8.0095572
295.2  8658.1498  8.0094234
295.3  8644.1232  8.0092896
295.4  8783.3396  8.0091558
295.5  8776.1998  8.009022
295.6  8940.6666  8.0088882
295.7  8908.6772  8.0087543
295.8  8942.6733  8.0086205
295.9  8821.0591  8.0084866
296  8793.574  8.0083527
296.1  8861.1542  8.0082188
296.2  8928.693  8.0080848
296.3  8837.9385  8.0079509
296.4  8763.813  8.0078169
296.5  8772.4177  8.0076829
296.6  8850.5747  8.0075489
296.7  8835.2033  8.0074149
296.8  8863.6419  8.0072809
296.9  8827.9634  8.0071469
297  8839.1825  8.0070128
297.1  8985.3519  8.0068787
297.2  8847.282  8.0067446
297.3  9027.3509  8.0066105
297.4  8948.361  8.0064764
297.5  8950.7704  8.0063423
297.6  8941.1828  8.0062081
297.7  9011.1146  8.0060739
297.8  9013.438  8.0059398
297.9  8879.9958  8.0058056
298  8943.8462  8.0056713
298.1  8951.4946  8.0055371
298.2  9004.2582  8.0054029
298.3  8854.1772  8.0052686
298.4  8992.136  8.0051343
298.5  8947.3421  8.005
298.6  8935.7641  8.0048657
298.7  9027.0696  8.0047314
298.8  8993.1826  8.004597
298.9  8927.4189  8.0044627
299  8978.7618  8.0043283
299.1  9008.414  8.0041939
299.2  8992.5345  8.0040595
299.3  9090.0587  8.0039251
299.4  9033.3046  8.0037907
299.5  9072.4852  8.0036562
299.6  8969.8905  8.0035218
299.7  8930.7758  8.0033873
299.8  9066.998  8.0032528
299.9  9046.6748  8.0031183
300  9212.4626  8.0029838
300.1  9193.0772  8.0028492
300.2  9156.2879  8.0027147
300.3  9148.4086  8.0025801
300.4  9066.1672  8.0024455
300.5  9115.7728  8.0023109
300.6  9170.129  8.0021763
300.7  9045.0688  8.0020417
300.8  9167.2415  8.0019071
300.9  9132.7437  8.0017724
301  9142.7882  8.0016377
301.1  9078.8172  8.001503
301.2  9259.8609  8.0013683
301.3  9171.9861  8.0012336
301.4  9039.7542  8.0010989
301.5  9107.4367  8.0009642
301.6  9057.0043  8.0008294
301.7  9098.8423  8.0006946
301.8  9201.7194  8.0005598
301.9  9168.4456  8.000425
302  9157.0721  8.0002902
302.1  9233.0476  8.0001554
302.2  9142.367  8.0000205
302.3  9257.4701  7.9998857
302.4  9222.545  7.9997508
302.5  9104.4809  7.9996159
302.6  9214.5996  7.999481
302.7  9340.8435  7.9993461
302.8  9340.9807  7.9992112
302.9  9252.2638  7.9990762
303  9271.0107  7.9989413
303.1  9144.2366  7.9988063
303.2  9002.9373  7.9986713
303.3  9236.2721  7.9985363
303.4  9274.4031  7.9984013
303.5  9367.315  7.9982662
303.6  9292.5423  7.9981312
303.7  9255.3083  7.9979961
303.8  9314.9474  7.9978611
303.9  9356.7567  7.997726
304  9294.0319  7.9975909
304.1  9311.5285  7.9974558
304.2  9343.0581  7.9973206
304.3  9266.0341  7.9971855
304.4  9320.9321  7.9970503
304.5  9171.5973  7.9969152
304.6  9169.9777  7.99678
304.7  9343.866  7.9966448
304.8  9343.5243  7.9965096
304.9  9292.519  7.9963744
305  9282.7454  7.9962391
305.1  9356.2461  7.9961039
305.2  9415.7138  7.9959686
305.3  9415.8371  7.9958333
305.4  9374.0768  7.995698
305.5  9354.506  7.9955627
305.6  9354.7658  7.9954274
305.7  9450.5668  7.9952921
305.8  9461.562  7.9951567
305.9  9523.9739  7.9950214
306  9479.3693  7.994886
306.1  9481.6029  7.9947506
306.2  9493.2161  7.9946152
306.3  9500.9909  7.9944798
306.4  9458.7907  7.9943444
306.5  9330.7865  7.9942089
306.6  9464.5685  7.9940735
306.7  9334.9306  7.993938
306.8  9397.5076  7.9938025
306.9  9495.5062  7.993667
307  9481.1973  7.9935315
307.1  9516.0768  7.993396
307.2  9638.443  7.9932605
307.3  9715.6784  7.9931249
307.4  9786.9259  7.9929894
307.5  9851.1031  7.9928538
307.6  9993.6778  7.9927182
307.7  10036.705  7.9925826
307.8  10153.289  7.992447
307.9  10274.034  7.9923114
308  10286.155  7.9921758
308.1  10422.382  7.9920401
308.2  10434.079  7.9919044
308.3  10648.262  7.9917688
308.4  10778.58  7.9916331
308.5  10770.748  7.9914974
308.6  10683.701  7.9913617
308.7  10742.416  7.991226
308.8  10694.805  7.9910902
308.9  10472.158  7.9909545
309  10222.474  7.9908187
309.1  10140.561  7.9906829
309.2  10282.642  7.9905471
309.3  10187.368  7.9904113
309.4  9953.3483  7.9902755
309.5  9763.76  7.9901397
309.6  9810.4537  7.9900039
309.7  9816.4418  7.989868
309.8  9678.2035  7.9897321
309.9  9694.2735  7.9895963
310  9787.4851  7.9894604
310.1  9700.2768  7.9893245
310.2  9768.6636  7.9891886
310.3  9611.3809  7.9890526
310.4  9670.5307  7.9889167
310.5  9692.7832  7.9887808
310.6  9628.8554  7.9886448
310.7  9912.4039  7.9885088
310.8  9793.1404  7.9883728
310.9  9704.9485  7.9882368
311  9778.8019  7.9881008
311.1  9623.5792  7.9879648
311.2  9621.151  7.9878288
311.3  9660.4428  7.9876927
311.4  9613.7288  7.9875567
311.5  9786.2604  7.9874206
311.6  9820.1583  7.9872845
311.7  9781.3646  7.9871484
311.8  9732.6245  7.9870123
311.9  9712.54  7.9868762
312  9770.5631  7.9867401
312.1  9678.0923  7.9866039
312.2  9762.4106  7.9864678
312.3  9748.2355  7.9863316
312.4  9735.8689  7.9861954
312.5  9843.2756  7.9860592
312.6  9873.7797  7.985923
312.7  9844.4535  7.9857868
312.8  9874.4881  7.9856506
312.9  9764.8699  7.9855144
313  9767.5467  7.9853781
313.1  9812.7254  7.9852419
313.2  9726.7536  7.9851056
313.3  9968.9245  7.9849693
313.4  9849.637  7.984833
313.5  9857.8525  7.9846967
313.6  9976.8416  7.9845604
313.7  9885.143  7.9844241
313.8  9844.5919  7.9842877
313.9  9925.4758  7.9841514
314  10007.111  7.984015
314.1  9825.3504  7.9838786
314.2  9831.353  7.9837422
314.3  9877.1853  7.9836059
314.4  9892.9695  7.9834694
314.5  9780.6175  7.983333
314.6  9860.1648  7.9831966
314.7  9923.7713  7.9830602
314.8  9863.4296  7.9829237
314.9  9915.4123  7.9827872
315  9914.455  7.9826508
315.1  9786.5487  7.9825143
315.2  9887.2594  7.9823778
315.3  9888.2309  7.9822413
315.4  9931.3834  7.9821047
315.5  9900.4348  7.9819682
315.6  9949.0146  7.9818317
315.7  9877.0539  7.9816951
315.8  9875.5344  7.9815586
315.9  10031.714  7.981422
316  10080.891  7.9812854
316.1  10137.9  7.9811488
316.2  10031.254  7.9810122
316.3  9955.1082  7.9808756
316.4  10005.772  7.9807389
316.5  10045.985  7.9806023
316.6  9925.6736  7.9804656
316.7  9991.708  7.980329
316.8  10101.056  7.9801923
316.9  9917.2671  7.9800556
317  9932.5004  7.9799189
317.1  10071.206  7.9797822
317.2  9998.8575  7.9796455
317.3  10007.659  7.9795088
317.4  10122.908  7.9793721
317.5  10062.397  7.9792353
317.6  10117.496  7.9790985
317.7  10074.054  7.9789618
317.8  10159.471  7.978825
317.9  10113.846  7.9786882
318  9986.961  7.9785514
318.1  10102.603  7.9784146
318.2  9953.1897  7.9782778
318.3  10064.201  7.9781409
318.4  10174.767  7.9780041
318.5  10149.217  7.9778673
318.6  10243.383  7.9777304
318.7  10169.73  7.9775935
318.8  10026.243  7.9774566
318.9  10059.799  7.9773197
319  10002.367  7.9771828
319.1  10030.317  7.9770459
319.2  10175.339  7.976909
319.3  10044.56  7.9767721
319.4  10157.637  7.9766351
319.5  10247.063  7.9764982
319.6  10081.855  7.9763612
319.7  10129.427  7.9762242
319.8  10105.117  7.9760872
319.9  10113.133  7.9759502
320  10155.367  7.9758132
320.1  10176.081  7.9756762
320.2  10075.38  7.9755392
320.3  10004.573  7.9754022
320.4  10083.589  7.9752651
320.5  10100.863  7.9751281
320.6  10300.883  7.974991
320.7  10304.261  7.9748539
320.8  10164.243  7.9747168
320.9  10191.562  7.9745797
321  10033.797  7.9744426
321.1  10277.223  7.9743055
321.2  10337.566  7.9741684
321.3  10234.447  7.9740313
321.4  10229.892  7.9738941
321.5  10251.398  7.973757
321.6  10160.169  7.9736198
321.7  10214.599  7.9734826
321.8  10177.561  7.9733454
321.9  10224.783  7.9732083
322  10232.852  7.9730711
322.1  10235.977  7.9729338
322.2  10162.636  7.9727966
322.3  10305.395  7.9726594
322.4  10345.374  7.9725221
322.5  10406.779  7.9723849
322.6  10413.886  7.9722476
322.7  10337.725  7.9721104
322.8  10342.155  7.9719731
322.9  10063.362  7.9718358
323  10256.535  7.9716985
323.1  10463.235  7.9715612
323.2  10279.496  7.9714239
323.3  10329.638  7.9712866
323.4  10350.638  7.9711492
323.5  10395.214  7.9710119
323.6  10356.981  7.9708745
323.7  10283.861  7.9707372
323.8  10427.34  7.9705998
323.9  10387.1  7.9704624
324  10462.609  7.970325
324.1  10492.245  7.9701876
324.2  10421  7.9700502
324.3  10501.061  7.9699128
324.4  10519.378  7.9697754
324.5  10500.881  7.9696379
324.6  10531.84  7.9695005
324.7  10353.383  7.969363
324.8  10385.641  7.9692256
324.9  10475.138  7.9690881
325  10443.827  7.9689506
325.1  10509.139  7.9688131
325.2  10483.237  7.9686756
325.3  10420.605  7.9685381
325.4  10342.077  7.9684006
325.5  10369.874  7.9682631
325.6  10423.814  7.9681255
325.7  10515.623  7.967988
325.8  10427.967  7.9678505
325.9  10446.157  7.9677129
326  10354.628  7.9675753
326.1  10375.929  7.9674377
326.2  10401.82  7.9673002
326.3  10533.48  7.9671626
326.4  10431.997  7.967025
326.5  10398.756  7.9668873
326.6  10500.604  7.9667497
326.7  10531.951  7.9666121
326.8  10538.008  7.9664744
326.9  10612.993  7.9663368
327  10565.864  7.9661991
327.1  10566.866  7.9660615
327.2  10609.248  7.9659238
327.3  10404.452  7.9657861
327.4  10461.251  7.9656484
327.5  10516.211  7.9655107
327.6  10546.349  7.965373
327.7  10599.294  7.9652353
327.8  10626.573  7.9650976
327.9  10681.975  7.9649598
328  10583.476  7.9648221
328.1  10594.34  7.9646844
328.2  10578.278  7.9645466
328.3  10641.031  7.9644088
328.4  10533.955  7.9642711
328.5  10605.651  7.9641333
328.6  10609.395  7.9639955
328.7  10647.4  7.9638577
328.8  10729.488  7.9637199
328.9  10700.601  7.9635821
329  10635.794  7.9634442
329.1  10610.82  7.9633064
329.2  10603.818  7.9631686
329.3  10639.368  7.9630307
329.4  10685.884  7.9628928
329.5  10741.421  7.962755
329.6  10767.194  7.9626171
329.7  10639.611  7.9624792
329.8  10689.73  7.9623413
329.9  10866.692  7.9622034
330  10766.615  7.9620655

