# Created by:        SpecsLab Prodigy, Version 4.84.1-r101483 
#
# XY-Serializer Export Settings:
#   Comment Prefix:           #
#   Output Meta Data:         yes
#   Energy Axis:              Kinetic Energy
#   Count Rate:               Counts per Second
#   Separate Scan Data:       no
#   Separate Channel Data:    no
#   External Channel Data:    yes
#   Transmission Function:    yes
#   Error Bar:                no
#   Operation Results:        yes
#   Time Zone Format:         UTC
#
# Group:                        L-serine pH 7 500 mM
#
# Region:                       O 1s 600
# Spectrum ID:                  622
# Acquisition Date:             03/12/26 06:15:19 UTC
# Analysis Method:              XPS
# Analyzer:                     Phoibos
# Analyzer Lens:                LargeArea:3.5kV
# Analyzer Slit:                5:7x20\B:open
# Scan Mode:                    FixedAnalyzerTransmission
# Curves/Scan:                  1
# Values/Curve:                 151
# Dwell Time:                   0.1
# Excitation Energy:            1130
# Kinetic Energy:               590
# Pass Energy:                  10
# Bias Voltage:                 220
# Detector Voltage:             1920
# Eff. Workfunction:            0
# Source:                       Monochromator
# Comment:                      5th

# Cycle: 0
#
# Number of Scans: 2

# Cycle: 0, Curve: 0
#
# Acquisition Date:             03/12/26 06:15:19 UTC
# ColumnLabels:                 energy counts/s transmission
#
590  330.34599  7.6057521
590.1  281.4414  7.6056214
590.2  294.23607  7.6054908
590.3  297.71667  7.6053602
590.4  274.07206  7.6052296
590.5  186.70094  7.605099
590.6  256.80492  7.6049683
590.7  243.14511  7.6048378
590.8  199.71163  7.6047072
590.9  189.42041  7.6045766
591  219.64025  7.604446
591.1  175.47332  7.6043154
591.2  215.43021  7.6041849
591.3  197.90222  7.6040543
591.4  169.17671  7.6039238
591.5  156.18278  7.6037932
591.6  165.65205  7.6036627
591.7  191.48133  7.6035322
591.8  184.96242  7.6034016
591.9  168.49564  7.6032711
592  194.60767  7.6031406
592.1  176.4002  7.6030101
592.2  129.34548  7.6028796
592.3  176.90966  7.6027491
592.4  247.37828  7.6026186
592.5  183.70397  7.6024882
592.6  163.67823  7.6023577
592.7  180.36959  7.6022272
592.8  218.33692  7.6020968
592.9  206.90383  7.6019663
593  221.51786  7.6018359
593.1  252.72424  7.6017055
593.2  284.56853  7.601575
593.3  261.49502  7.6014446
593.4  258.84277  7.6013142
593.5  241.73821  7.6011838
593.6  340.79297  7.6010534
593.7  363.35792  7.600923
593.8  456.80723  7.6007926
593.9  524.40957  7.6006622
594  663.09256  7.6005319
594.1  789.20593  7.6004015
594.2  1118.1424  7.6002711
594.3  1483.7572  7.6001408
594.4  1867.8116  7.6000104
594.5  2395.9993  7.5998801
594.6  3167.4337  7.5997498
594.7  3884.5149  7.5996194
594.8  4785.0096  7.5994891
594.9  5163.4822  7.5993588
595  5483.7002  7.5992285
595.1  5242.9526  7.5990982
595.2  5230.3754  7.5989679
595.3  4992.4968  7.5988376
595.4  4440.3875  7.5987074
595.5  4082.1472  7.5985771
595.6  4025.4902  7.5984468
595.7  4053.4042  7.5983166
595.8  4389.945  7.5981863
595.9  4862.911  7.5980561
596  6004.6537  7.5979258
596.1  7145.3247  7.5977956
596.2  8289.3007  7.5976654
596.3  9755.3486  7.5975352
596.4  10969.277  7.5974049
596.5  12212.996  7.5972747
596.6  13578.444  7.5971445
596.7  15175.751  7.5970144
596.8  16496.069  7.5968842
596.9  17156.721  7.596754
597  17479.268  7.5966238
597.1  17744.868  7.5964937
597.2  17653.478  7.5963635
597.3  17113.799  7.5962334
597.4  15855.053  7.5961032
597.5  14834.455  7.5959731
597.6  13706.104  7.595843
597.7  11882.657  7.5957128
597.8  10625.688  7.5955827
597.9  9152.4065  7.5954526
598  7702.0412  7.5953225
598.1  6270.0444  7.5951924
598.2  5062.6848  7.5950623
598.3  4285.8155  7.5949322
598.4  3384.9387  7.5948022
598.5  2803.0487  7.5946721
598.6  2217.111  7.594542
598.7  1924.7693  7.594412
598.8  1529.7192  7.5942819
598.9  1338.5053  7.5941519
599  1031.5034  7.5940219
599.1  869.47593  7.5938918
599.2  693.10359  7.5937618
599.3  756.22753  7.5936318
599.4  676.79465  7.5935018
599.5  522.55916  7.5933718
599.6  426.09823  7.5932418
599.7  348.1535  7.5931118
599.8  399.4469  7.5929818
599.9  366.55265  7.5928519
600  289.2106  7.5927219
600.1  281.52816  7.5925919
600.2  242.03701  7.592462
600.3  240.19053  7.592332
600.4  227.1626  7.5922021
600.5  204.81911  7.5920722
600.6  171.07679  7.5919422
600.7  162.9095  7.5918123
600.8  178.84765  7.5916824
600.9  177.05247  7.5915525
601  173.85667  7.5914226
601.1  143.53891  7.5912927
601.2  152.53989  7.5911628
601.3  128.1645  7.591033
601.4  118.75257  7.5909031
601.5  136.4968  7.5907732
601.6  103.42826  7.5906434
601.7  124.4316  7.5905135
601.8  115.13209  7.5903837
601.9  107.77524  7.5902538
602  89.730879  7.590124
602.1  113.35008  7.5899942
602.2  99.471871  7.5898644
602.3  98.782919  7.5897346
602.4  94.79596  7.5896048
602.5  89.110401  7.589475
602.6  117.72479  7.5893452
602.7  92.662579  7.5892154
602.8  83.441621  7.5890856
602.9  112.52507  7.5889559
603  91.36039  7.5888261
603.1  117.40114  7.5886963
603.2  122.28178  7.5885666
603.3  103.19393  7.5884368
603.4  80.51443  7.5883071
603.5  90.430205  7.5881774
603.6  69.82507  7.5880477
603.7  95.257274  7.587918
603.8  107.44536  7.5877882
603.9  86.060889  7.5876585
604  92.22851  7.5875289
604.1  64.229101  7.5873992
604.2  89.438925  7.5872695
604.3  76.067785  7.5871398
604.4  86.280855  7.5870101
604.5  94.576215  7.5868805
604.6  91.798045  7.5867508
604.7  65.135995  7.5866212
604.8  42.340323  7.5864916
604.9  72.042114  7.5863619
605  72.362008  7.5862323

