# Created by:        SpecsLab Prodigy, Version 4.84.1-r101483 
#
# XY-Serializer Export Settings:
#   Comment Prefix:           #
#   Output Meta Data:         yes
#   Energy Axis:              Kinetic Energy
#   Count Rate:               Counts per Second
#   Separate Scan Data:       no
#   Separate Channel Data:    no
#   External Channel Data:    yes
#   Transmission Function:    yes
#   Error Bar:                no
#   Operation Results:        yes
#   Time Zone Format:         UTC
#
# Group:                        L-serine pH 7 500 mM
#
# Region:                       VBM
# Spectrum ID:                  648
# Acquisition Date:             03/12/26 09:26:59 UTC
# Analysis Method:              XPS
# Analyzer:                     Phoibos
# Analyzer Lens:                LargeArea:3.5kV
# Analyzer Slit:                5:7x20\B:open
# Scan Mode:                    FixedAnalyzerTransmission
# Curves/Scan:                  1
# Values/Curve:                 251
# Dwell Time:                   0.1
# Excitation Energy:            710
# Kinetic Energy:               690
# Pass Energy:                  10
# Bias Voltage:                 220
# Detector Voltage:             1920
# Eff. Workfunction:            0
# Source:                       Monochromator
# Comment:                      

# Cycle: 0
#
# Number of Scans: 2

# Cycle: 0, Curve: 0
#
# Acquisition Date:             03/12/26 09:26:59 UTC
# ColumnLabels:                 energy counts/s transmission
#
690  361.41595  7.4785451
690.1  331.67324  7.4784214
690.2  302.96126  7.4782977
690.3  292.48873  7.4781739
690.4  213.21488  7.4780502
690.5  269.36673  7.4779265
690.6  225.22745  7.4778028
690.7  239.83722  7.4776791
690.8  280.22925  7.4775554
690.9  234.83855  7.4774317
691  284.82561  7.477308
691.1  257.41016  7.4771843
691.2  218.99587  7.4770606
691.3  201.16353  7.476937
691.4  219.62341  7.4768133
691.5  180.62989  7.4766897
691.6  210.89345  7.476566
691.7  183.80589  7.4764424
691.8  207.52151  7.4763188
691.9  181.75815  7.4761951
692  185.601  7.4760715
692.1  244.87876  7.4759479
692.2  169.97598  7.4758243
692.3  190.60451  7.4757007
692.4  190.96047  7.4755771
692.5  163.53306  7.4754536
692.6  171.2072  7.47533
692.7  157.76933  7.4752064
692.8  157.46797  7.4750829
692.9  147.54025  7.4749593
693  145.75473  7.4748358
693.1  159.39945  7.4747122
693.2  184.45609  7.4745887
693.3  171.47552  7.4744652
693.4  147.8093  7.4743416
693.5  147.64615  7.4742181
693.6  201.52994  7.4740946
693.7  152.79715  7.4739711
693.8  182.0164  7.4738476
693.9  273.91428  7.4737242
694  232.63833  7.4736007
694.1  232.53182  7.4734772
694.2  244.91884  7.4733537
694.3  236.31521  7.4732303
694.4  219.45106  7.4731068
694.5  202.59167  7.4729834
694.6  255.16262  7.47286
694.7  261.75065  7.4727365
694.8  392.39778  7.4726131
694.9  360.50147  7.4724897
695  340.8172  7.4723663
695.1  340.23815  7.4722429
695.2  424.9571  7.4721195
695.3  439.20008  7.4719961
695.4  479.2282  7.4718727
695.5  563.21032  7.4717494
695.6  614.55718  7.471626
695.7  507.11661  7.4715026
695.8  585.70476  7.4713793
695.9  594.23722  7.4712559
696  727.87977  7.4711326
696.1  712.13562  7.4710093
696.2  691.36331  7.4708859
696.3  817.14014  7.4707626
696.4  805.46322  7.4706393
696.5  853.36278  7.470516
696.6  833.76882  7.4703927
696.7  810.73615  7.4702694
696.8  908.1332  7.4701461
696.9  909.32628  7.4700229
697  829.00889  7.4698996
697.1  797.50375  7.4697763
697.2  864.76147  7.4696531
697.3  915.36429  7.4695298
697.4  852.47611  7.4694066
697.5  858.16199  7.4692833
697.6  853.24063  7.4691601
697.7  862.83072  7.4690369
697.8  863.83916  7.4689137
697.9  743.38636  7.4687905
698  646.50123  7.4686673
698.1  727.97536  7.4685441
698.2  668.64183  7.4684209
698.3  674.39758  7.4682977
698.4  651.63495  7.4681745
698.5  624.4774  7.4680514
698.6  658.26557  7.4679282
698.7  793.08019  7.4678051
698.8  796.22801  7.4676819
698.9  874.02582  7.4675588
699  1093.2354  7.4674356
699.1  1122.6552  7.4673125
699.2  1320.7575  7.4671894
699.3  1588.4418  7.4670663
699.4  1548.5365  7.4669432
699.5  1581.5325  7.4668201
699.6  1578.4116  7.466697
699.7  1625.771  7.4665739
699.8  1665.1984  7.4664508
699.9  1700.6561  7.4663278
700  1750.9369  7.4662047
700.1  1719.3669  7.4660816
700.2  1589.0786  7.4659586
700.3  1609.3483  7.4658355
700.4  1693.1641  7.4657125
700.5  1617.32  7.4655895
700.6  1600.7441  7.4654665
700.7  1677.4255  7.4653434
700.8  1713.5647  7.4652204
700.9  1632.8566  7.4650974
701  1737.4768  7.4649744
701.1  1686.1538  7.4648515
701.2  1826.977  7.4647285
701.3  1770.0425  7.4646055
701.4  1824.0198  7.4644825
701.5  1927.4538  7.4643596
701.6  1839.5576  7.4642366
701.7  1650.7823  7.4641137
701.8  1620.3675  7.4639907
701.9  1345.5939  7.4638678
702  1355.517  7.4637449
702.1  1422.0775  7.463622
702.2  1235.4793  7.4634991
702.3  1231.6396  7.4633761
702.4  1328.2961  7.4632532
702.5  1499.3399  7.4631304
702.6  1451.2664  7.4630075
702.7  1551.6686  7.4628846
702.8  1523.9786  7.4627617
702.9  1554.6598  7.4626389
703  1627.4457  7.462516
703.1  1753.2124  7.4623932
703.2  1713.5094  7.4622703
703.3  1635.5175  7.4621475
703.4  1501.3082  7.4620247
703.5  1599.3937  7.4619018
703.6  1469.4746  7.461779
703.7  1224.3182  7.4616562
703.8  994.85684  7.4615334
703.9  853.69916  7.4614106
704  778.27676  7.4612878
704.1  665.7581  7.461165
704.2  436.73244  7.4610423
704.3  395.91772  7.4609195
704.4  310.74455  7.4607967
704.5  266.7023  7.460674
704.6  208.02498  7.4605512
704.7  163.21693  7.4604285
704.8  170.38589  7.4603058
704.9  112.82075  7.460183
705  133.50696  7.4600603
705.1  113.5908  7.4599376
705.2  129.5569  7.4598149
705.3  65.598569  7.4596922
705.4  80.434546  7.4595695
705.5  64.94011  7.4594468
705.6  46.884865  7.4593242
705.7  63.4564  7.4592015
705.8  44.88741  7.4590788
705.9  35.597219  7.4589562
706  45.931376  7.4588335
706.1  30.297574  7.4587109
706.2  49.493971  7.4585882
706.3  50.983905  7.4584656
706.4  44.223905  7.458343
706.5  28.12775  7.4582204
706.6  24.3959  7.4580978
706.7  28.34457  7.4579752
706.8  21.15317  7.4578526
706.9  19.31503  7.45773
707  52.507305  7.4576074
707.1  36.075375  7.4574848
707.2  39.396525  7.4573623
707.3  33.135415  7.4572397
707.4  23.41336  7.4571171
707.5  35.0423  7.4569946
707.6  20.604165  7.4568721
707.7  31.23468  7.4567495
707.8  40.510505  7.456627
707.9  49.208795  7.4565045
708  53.901205  7.456382
708.1  32.0593  7.4562595
708.2  14.9236  7.456137
708.3  22.817565  7.4560145
708.4  20.897185  7.455892
708.5  38.026745  7.4557695
708.6  29.360405  7.455647
708.7  32.7322  7.4555246
708.8  18.60432  7.4554021
708.9  28.77838  7.4552797
709  25.9915  7.4551572
709.1  28.76669  7.4550348
709.2  37.42946  7.4549123
709.3  36.8811  7.4547899
709.4  26.03755  7.4546675
709.5  12.651365  7.4545451
709.6  22.383485  7.4544227
709.7  31.24665  7.4543003
709.8  30.02965  7.4541779
709.9  33.765914  7.4540555
710  31.451386  7.4539332
710.1  49.0086  7.4538108
710.2  43.0462  7.4536884
710.3  10.2213  7.4535661
710.4  33.621895  7.4534437
710.5  30.63367  7.4533214
710.6  34.757435  7.453199
710.7  40.796119  7.4530767
710.8  37.667781  7.4529544
710.9  21.1102  7.4528321
711  15.38734  7.4527098
711.1  32.043545  7.4525875
711.2  33.080335  7.4524652
711.3  39.047085  7.4523429
711.4  46.11906  7.4522206
711.5  46.75345  7.4520984
711.6  30.684235  7.4519761
711.7  21.6252  7.4518538
711.8  16.02175  7.4517316
711.9  31.37436  7.4516093
712  23.02534  7.4514871
712.1  18.38305  7.4513649
712.2  30.17065  7.4512426
712.3  35.4638  7.4511204
712.4  23.5358  7.4509982
712.5  41.336595  7.450876
712.6  35.82147  7.4507538
712.7  37.340435  7.4506316
712.8  21.3395  7.4505094
712.9  7.80865  7.4503873
713  16.50645  7.4502651
713.1  15.9275  7.4501429
713.2  16.851475  7.4500208
713.3  20.025175  7.4498986
713.4  23.5107  7.4497765
713.5  30.601029  7.4496544
713.6  36.999816  7.4495322
713.7  54.276505  7.4494101
713.8  21.63335  7.449288
713.9  21.69775  7.4491659
714  19.45995  7.4490438
714.1  27.408545  7.4489217
714.2  37.157255  7.4487996
714.3  19.0932  7.4486775
714.4  34.8262  7.4485554
714.5  23.174  7.4484334
714.6  17.476915  7.4483113
714.7  38.55373  7.4481893
714.8  20.118755  7.4480672
714.9  24.497615  7.4479452
715  18.029835  7.4478232

