# Created by:        SpecsLab Prodigy, Version 4.84.1-r101483 
#
# XY-Serializer Export Settings:
#   Comment Prefix:           #
#   Output Meta Data:         yes
#   Energy Axis:              Kinetic Energy
#   Count Rate:               Counts per Second
#   Separate Scan Data:       no
#   Separate Channel Data:    no
#   External Channel Data:    yes
#   Transmission Function:    yes
#   Error Bar:                no
#   Operation Results:        yes
#   Time Zone Format:         UTC
#
# Group:                        L-serine pH 7 500 mM
#
# Region:                       C 1s 70
# Spectrum ID:                  672
# Acquisition Date:             03/12/26 13:38:02 UTC
# Analysis Method:              XPS
# Analyzer:                     Phoibos
# Analyzer Lens:                LargeArea:3.5kV
# Analyzer Slit:                5:7x20\B:open
# Scan Mode:                    FixedAnalyzerTransmission
# Curves/Scan:                  1
# Values/Curve:                 251
# Dwell Time:                   0.1
# Excitation Energy:            360
# Kinetic Energy:               60
# Pass Energy:                  10
# Bias Voltage:                 220
# Detector Voltage:             1920
# Eff. Workfunction:            0
# Source:                       Monochromator
# Comment:                      

# Cycle: 0
#
# Number of Scans: 15

# Cycle: 0, Curve: 0
#
# Acquisition Date:             03/12/26 13:38:02 UTC
# ColumnLabels:                 energy counts/s transmission
#
60  80.647833  8.018195
60.1  92.586813  8.0187437
60.2  88.179874  8.0192905
60.3  92.731159  8.0198354
60.4  98.403362  8.0203785
60.5  109.33999  8.0209198
60.6  103.03465  8.0214592
60.7  92.021751  8.0219969
60.8  90.929892  8.0225327
60.9  90.516711  8.0230667
61  95.097113  8.023599
61.1  106.46274  8.0241294
61.2  105.57792  8.0246581
61.3  106.38173  8.025185
61.4  102.82447  8.0257101
61.5  115.57579  8.0262334
61.6  107.38079  8.026755
61.7  96.687481  8.0272749
61.8  96.148984  8.027793
61.9  93.210148  8.0283094
62  79.868146  8.028824
62.1  92.477077  8.0293369
62.2  99.386935  8.0298481
62.3  100.16803  8.0303576
62.4  91.549406  8.0308653
62.5  104.22617  8.0313714
62.6  97.332229  8.0318758
62.7  104.07695  8.0323785
62.8  114.65335  8.0328795
62.9  96.956557  8.0333789
63  98.782703  8.0338765
63.1  99.325421  8.0343725
63.2  103.46758  8.0348669
63.3  102.86991  8.0353596
63.4  86.189919  8.0358506
63.5  90.651244  8.03634
63.6  94.315085  8.0368278
63.7  94.202957  8.037314
63.8  98.685467  8.0377985
63.9  93.346416  8.0382814
64  83.731058  8.0387627
64.1  83.856253  8.0392424
64.2  96.248738  8.0397205
64.3  101.71443  8.040197
64.4  87.862169  8.0406719
64.5  81.819798  8.0411453
64.6  77.444881  8.041617
64.7  85.486706  8.0420872
64.8  82.668503  8.0425558
64.9  91.602905  8.0430229
65  103.22696  8.0434884
65.1  85.456726  8.0439524
65.2  88.14472  8.0444148
65.3  87.43242  8.0448757
65.4  88.657148  8.045335
65.5  86.430845  8.0457928
65.6  84.498568  8.0462491
65.7  98.118242  8.0467039
65.8  99.454822  8.0471572
65.9  98.863167  8.0476089
66  82.371109  8.0480592
66.1  86.285587  8.0485079
66.2  88.648974  8.0489552
66.3  89.467886  8.049401
66.4  85.070592  8.0498453
66.5  90.240714  8.0502881
66.6  83.16714  8.0507295
66.7  83.022229  8.0511694
66.8  90.535289  8.0516078
66.9  95.856242  8.0520448
67  83.963443  8.0524803
67.1  88.77455  8.0529144
67.2  84.1729  8.053347
67.3  85.495646  8.0537782
67.4  98.835465  8.054208
67.5  105.07981  8.0546364
67.6  91.179101  8.0550633
67.7  92.538687  8.0554888
67.8  97.072146  8.0559129
67.9  94.621535  8.0563356
68  101.10304  8.0567569
68.1  87.14474  8.0571768
68.2  97.349126  8.0575953
68.3  99.222923  8.0580124
68.4  94.25161  8.0584281
68.5  94.56032  8.0588425
68.6  86.388972  8.0592554
68.7  88.847215  8.059667
68.8  92.210404  8.0600773
68.9  100.62852  8.0604862
69  92.189674  8.0608937
69.1  92.471478  8.0612999
69.2  86.626568  8.0617047
69.3  101.43286  8.0621082
69.4  93.843504  8.0625103
69.5  84.343099  8.0629112
69.6  98.362798  8.0633107
69.7  83.731667  8.0637088
69.8  90.623625  8.0641057
69.9  106.53518  8.0645012
70  92.222042  8.0648954
70.1  97.833873  8.0652883
70.2  105.28076  8.0656799
70.3  111.58638  8.0660702
70.4  104.60122  8.0664592
70.5  109.34886  8.066847
70.6  108.86651  8.0672334
70.7  114.52855  8.0676186
70.8  104.46817  8.0680024
70.9  103.42214  8.0683851
71  98.296536  8.0687664
71.1  100.61996  8.0691465
71.2  96.225398  8.0695253
71.3  98.161306  8.0699028
71.4  104.26196  8.0702791
71.5  92.426808  8.0706542
71.6  109.79273  8.071028
71.7  117.01772  8.0714006
71.8  117.05858  8.0717719
71.9  110.25751  8.072142
72  103.47792  8.0725109
72.1  109.85481  8.0728785
72.2  120.0523  8.0732449
72.3  134.85795  8.0736102
72.4  125.86492  8.0739742
72.5  129.76802  8.0743369
72.6  144.69996  8.0746985
72.7  134.01397  8.0750589
72.8  141.92299  8.0754181
72.9  138.57268  8.0757761
73  126.12248  8.0761329
73.1  125.18701  8.0764885
73.2  119.17929  8.0768429
73.3  122.03483  8.0771962
73.4  114.63971  8.0775483
73.5  109.96767  8.0778992
73.6  114.22889  8.0782489
73.7  102.20375  8.0785975
73.8  101.21316  8.0789449
73.9  93.59414  8.0792912
74  89.6644  8.0796363
74.1  106.01682  8.0799803
74.2  99.432508  8.0803231
74.3  104.89272  8.0806647
74.4  101.5237  8.0810053
74.5  91.739745  8.0813447
74.6  83.473895  8.0816829
74.7  96.532754  8.0820201
74.8  99.56419  8.0823561
74.9  105.3755  8.082691
75  103.90508  8.0830248
75.1  87.492136  8.0833575
75.2  98.772012  8.083689
75.3  97.366088  8.0840195
75.4  105.02447  8.0843488
75.5  104.1646  8.0846771
75.6  94.773275  8.0850042
75.7  94.036247  8.0853303
75.8  95.612823  8.0856552
75.9  84.310029  8.0859791
76  90.867192  8.0863019
76.1  81.757104  8.0866236
76.2  95.924841  8.0869443
76.3  90.195918  8.0872639
76.4  107.47699  8.0875824
76.5  110.38493  8.0878998
76.6  112.73863  8.0882162
76.7  108.98518  8.0885315
76.8  91.909316  8.0888457
76.9  96.196791  8.0891589
77  101.07843  8.0894711
77.1  92.984842  8.0897822
77.2  93.076557  8.0900923
77.3  98.784633  8.0904013
77.4  96.412135  8.0907093
77.5  93.709272  8.0910162
77.6  91.202295  8.0913221
77.7  103.43747  8.091627
77.8  94.771592  8.0919309
77.9  84.224278  8.0922337
78  100.22358  8.0925355
78.1  96.139971  8.0928364
78.2  92.304023  8.0931362
78.3  104.25306  8.0934349
78.4  100.4505  8.0937327
78.5  106.41775  8.0940295
78.6  105.66555  8.0943253
78.7  95.668082  8.0946201
78.8  91.49792  8.0949138
78.9  106.60661  8.0952066
79  112.52392  8.0954984
79.1  100.55027  8.0957893
79.2  97.967207  8.0960791
79.3  115.38457  8.0963679
79.4  103.94774  8.0966558
79.5  89.491424  8.0969427
79.6  88.365525  8.0972287
79.7  100.78797  8.0975136
79.8  100.998  8.0977976
79.9  98.489639  8.0980807
80  101.77168  8.0983627
80.1  98.380628  8.0986439
80.2  105.45394  8.098924
80.3  106.26397  8.0992033
80.4  111.53474  8.0994815
80.5  115.01312  8.0997588
80.6  111.39149  8.1000352
80.7  103.54283  8.1003107
80.8  92.59553  8.1005852
80.9  98.727878  8.1008587
81  101.05898  8.1011314
81.1  88.798549  8.1014031
81.2  102.22965  8.1016739
81.3  103.94208  8.1019437
81.4  109.70879  8.1022127
81.5  114.9077  8.1024807
81.6  117.05623  8.1027478
81.7  94.58121  8.103014
81.8  99.822323  8.1032793
81.9  112.41568  8.1035436
82  102.58789  8.1038071
82.1  92.275914  8.1040697
82.2  104.66684  8.1043313
82.3  102.73263  8.1045921
82.4  104.22849  8.104852
82.5  94.014233  8.1051109
82.6  101.94243  8.105369
82.7  114.80228  8.1056262
82.8  102.41396  8.1058826
82.9  109.37113  8.106138
83  112.47679  8.1063926
83.1  121.13  8.1066463
83.2  109.12807  8.1068991
83.3  106.24801  8.107151
83.4  109.96972  8.1074021
83.5  109.7369  8.1076523
83.6  110.22781  8.1079016
83.7  106.77191  8.1081501
83.8  93.26239  8.1083977
83.9  104.41861  8.1086445
84  122.30703  8.1088904
84.1  113.82944  8.1091354
84.2  95.487887  8.1093796
84.3  90.980113  8.109623
84.4  96.493617  8.1098655
84.5  90.773153  8.1101072
84.6  110.78108  8.110348
84.7  111.95807  8.110588
84.8  116.80809  8.1108272
84.9  105.09438  8.1110655
85  102.79968  8.111303

