# Created by:        SpecsLab Prodigy, Version 4.84.1-r101483 
#
# XY-Serializer Export Settings:
#   Comment Prefix:           #
#   Output Meta Data:         yes
#   Energy Axis:              Kinetic Energy
#   Count Rate:               Counts per Second
#   Separate Scan Data:       no
#   Separate Channel Data:    no
#   External Channel Data:    yes
#   Transmission Function:    yes
#   Error Bar:                no
#   Operation Results:        yes
#   Time Zone Format:         UTC
#
# Group:                        L-serine pH 7 500 mM
#
# Region:                       O 1s ref
# Spectrum ID:                  607
# Acquisition Date:             03/12/26 04:47:25 UTC
# Analysis Method:              XPS
# Analyzer:                     Phoibos
# Analyzer Lens:                LargeArea:3.5kV
# Analyzer Slit:                5:7x20\B:open
# Scan Mode:                    FixedAnalyzerTransmission
# Curves/Scan:                  1
# Values/Curve:                 151
# Dwell Time:                   0.1
# Excitation Energy:            900
# Kinetic Energy:               360
# Pass Energy:                  20
# Bias Voltage:                 220
# Detector Voltage:             1920
# Eff. Workfunction:            0
# Source:                       Monochromator
# Comment:                      

# Cycle: 0
#
# Number of Scans: 1

# Cycle: 0, Curve: 0
#
# Acquisition Date:             03/12/26 04:47:25 UTC
# ColumnLabels:                 energy counts/s transmission
#
360  8137.4491  16.44968
360.1  7545.2148  16.449603
360.2  7612.9462  16.449526
360.3  7478.8021  16.449449
360.4  7309.5731  16.449371
360.5  7331.0498  16.449294
360.6  7097.2057  16.449217
360.7  7056.9882  16.449139
360.8  6659.4001  16.449062
360.9  6554.2495  16.448985
361  6988.3838  16.448907
361.1  6977.489  16.448829
361.2  6786.6179  16.448752
361.3  6904.3321  16.448674
361.4  6796.206  16.448596
361.5  6424.2801  16.448518
361.6  6704.7025  16.44844
361.7  6648.5307  16.448363
361.8  7052.2509  16.448285
361.9  6751.5524  16.448206
362  6571.6663  16.448128
362.1  6343.7778  16.44805
362.2  6765.5769  16.447972
362.3  6785.7175  16.447894
362.4  6768.5515  16.447815
362.5  6677.3202  16.447737
362.6  6716.815  16.447658
362.7  6989.506  16.44758
362.8  7011.692  16.447501
362.9  6827.9371  16.447423
363  6923.6185  16.447344
363.1  7091.129  16.447265
363.2  7298.8663  16.447187
363.3  7718.2756  16.447108
363.4  7414.5191  16.447029
363.5  7535.2092  16.44695
363.6  8062.4388  16.446871
363.7  8469.3839  16.446792
363.8  8757.4919  16.446713
363.9  9073.4422  16.446634
364  9172.9951  16.446554
364.1  9846.5625  16.446475
364.2  10593.223  16.446396
364.3  11525.247  16.446316
364.4  13350.147  16.446237
364.5  16333.559  16.446158
364.6  21157.38  16.446078
364.7  27991.375  16.445998
364.8  35636.527  16.445919
364.9  45700.411  16.445839
365  57979.075  16.445759
365.1  68457.762  16.445679
365.2  76831.257  16.4456
365.3  80563.349  16.44552
365.4  78220.431  16.44544
365.5  74036.408  16.44536
365.6  63837.285  16.44528
365.7  53438.211  16.445199
365.8  46658.424  16.445119
365.9  39891.262  16.445039
366  38557.908  16.444959
366.1  40651.772  16.444878
366.2  44019.701  16.444798
366.3  49453.294  16.444718
366.4  58346.359  16.444637
366.5  65360.04  16.444556
366.6  75969.634  16.444476
366.7  84472.156  16.444395
366.8  93816.914  16.444314
366.9  103128.22  16.444234
367  112823.98  16.444153
367.1  119331.38  16.444072
367.2  124506.57  16.443991
367.3  127641.99  16.44391
367.4  128106.56  16.443829
367.5  123984.43  16.443748
367.6  120797.73  16.443667
367.7  114536.33  16.443586
367.8  106408.89  16.443504
367.9  95586.489  16.443423
368  86107.833  16.443342
368.1  74869.205  16.44326
368.2  63656.952  16.443179
368.3  53868.043  16.443097
368.4  43933.107  16.443016
368.5  36877.358  16.442934
368.6  31578.288  16.442852
368.7  25908.897  16.442771
368.8  21820.828  16.442689
368.9  18984.449  16.442607
369  16868.021  16.442525
369.1  14827.048  16.442443
369.2  13769.163  16.442361
369.3  11876.901  16.442279
369.4  11348.613  16.442197
369.5  10451.451  16.442115
369.6  9791.6114  16.442033
369.7  9215.5006  16.44195
369.8  8923.335  16.441868
369.9  8244.4839  16.441786
370  8670.7086  16.441703
370.1  8797.5244  16.441621
370.2  7888.9407  16.441538
370.3  7680.3739  16.441456
370.4  7269.3768  16.441373
370.5  7365.4659  16.441291
370.6  7419.4202  16.441208
370.7  7247.6407  16.441125
370.8  7047.997  16.441042
370.9  6820.7572  16.440959
371  6720.3327  16.440876
371.1  6837.039  16.440793
371.2  7074.2739  16.44071
371.3  6841.956  16.440627
371.4  6360.6742  16.440544
371.5  6674.3618  16.440461
371.6  6580.1099  16.440378
371.7  6559.1754  16.440295
371.8  6541.5016  16.440211
371.9  6641.3116  16.440128
372  6758.3234  16.440044
372.1  6719.2192  16.439961
372.2  6644.0061  16.439877
372.3  6211.8195  16.439794
372.4  6141.3064  16.43971
372.5  6020.1744  16.439626
372.6  6417.5275  16.439543
372.7  6917.1068  16.439459
372.8  6259.5499  16.439375
372.9  6393.404  16.439291
373  6471.1854  16.439207
373.1  6497.7254  16.439123
373.2  6479.2102  16.439039
373.3  6376.8419  16.438955
373.4  6178.5255  16.438871
373.5  6146.3281  16.438787
373.6  6152.7351  16.438703
373.7  6277.6082  16.438618
373.8  6269.1164  16.438534
373.9  5984.2716  16.438449
374  6097.5176  16.438365
374.1  6266.259  16.438281
374.2  6286.9099  16.438196
374.3  5730.9517  16.438111
374.4  6195.3206  16.438027
374.5  6457.6037  16.437942
374.6  6285.3204  16.437857
374.7  6531.4261  16.437772
374.8  6734.081  16.437688
374.9  6380.7338  16.437603
375  6485.219  16.437518

