# Created by:        SpecsLab Prodigy, Version 4.84.1-r101483 
#
# XY-Serializer Export Settings:
#   Comment Prefix:           #
#   Output Meta Data:         yes
#   Energy Axis:              Kinetic Energy
#   Count Rate:               Counts per Second
#   Separate Scan Data:       no
#   Separate Channel Data:    no
#   External Channel Data:    yes
#   Transmission Function:    yes
#   Error Bar:                no
#   Operation Results:        yes
#   Time Zone Format:         UTC
#
# Group:                        L-serine pH 7 500 mM
#
# Region:                       N 1s 400
# Spectrum ID:                  640
# Acquisition Date:             03/12/26 08:00:00 UTC
# Analysis Method:              XPS
# Analyzer:                     Phoibos
# Analyzer Lens:                LargeArea:3.5kV
# Analyzer Slit:                5:7x20\B:open
# Scan Mode:                    FixedAnalyzerTransmission
# Curves/Scan:                  1
# Values/Curve:                 401
# Dwell Time:                   0.1
# Excitation Energy:            810
# Kinetic Energy:               390
# Pass Energy:                  10
# Bias Voltage:                 220
# Detector Voltage:             1920
# Eff. Workfunction:            0
# Source:                       Monochromator
# Comment:                      

# Cycle: 0
#
# Number of Scans: 15

# Cycle: 0, Curve: 0
#
# Acquisition Date:             03/12/26 08:00:00 UTC
# ColumnLabels:                 energy counts/s transmission
#
390  7486.9926  7.8784526
390.1  7514.1664  7.8783126
390.2  7513.2809  7.8781726
390.3  7543.753  7.8780326
390.4  7633.7552  7.8778926
390.5  7553.1331  7.8777526
390.6  7500.7723  7.8776126
390.7  7564.8964  7.8774726
390.8  7576.8717  7.8773326
390.9  7699.2483  7.8771926
391  7608.2273  7.8770526
391.1  7585.4095  7.8769125
391.2  7623.95  7.8767725
391.3  7593.2712  7.8766325
391.4  7646.238  7.8764925
391.5  7562.6335  7.8763525
391.6  7568.4135  7.8762125
391.7  7556.5399  7.8760725
391.8  7533.6726  7.8759325
391.9  7631.1745  7.8757925
392  7643.9783  7.8756525
392.1  7662.1109  7.8755125
392.2  7575.9071  7.8753725
392.3  7632.6101  7.8752325
392.4  7564.8598  7.8750925
392.5  7584.7577  7.8749525
392.6  7545.4359  7.8748125
392.7  7554.0092  7.8746725
392.8  7563.4911  7.8745325
392.9  7573.2932  7.8743925
393  7688.991  7.8742525
393.1  7661.4818  7.8741125
393.2  7579.6777  7.8739725
393.3  7606.9942  7.8738325
393.4  7594.4331  7.8736925
393.5  7590.3613  7.8735525
393.6  7575.6405  7.8734125
393.7  7653.5768  7.8732725
393.8  7633.6769  7.8731325
393.9  7644.7969  7.8729925
394  7601.2468  7.8728525
394.1  7625.7858  7.8727125
394.2  7638.0542  7.8725725
394.3  7570.6672  7.8724325
394.4  7520.2868  7.8722925
394.5  7636.6711  7.8721525
394.6  7494.1194  7.8720125
394.7  7641.1409  7.8718725
394.8  7672.2873  7.8717325
394.9  7575.5761  7.8715926
395  7600.0931  7.8714526
395.1  7603.6937  7.8713126
395.2  7687.02  7.8711726
395.3  7566.2234  7.8710326
395.4  7557.356  7.8708926
395.5  7625.1898  7.8707526
395.6  7610.3414  7.8706126
395.7  7594.0763  7.8704726
395.8  7591.9286  7.8703326
395.9  7602.8664  7.8701926
396  7591.5564  7.8700527
396.1  7595.1999  7.8699127
396.2  7745.7075  7.8697727
396.3  7619.582  7.8696327
396.4  7659.1923  7.8694927
396.5  7680.7226  7.8693527
396.6  7629.877  7.8692127
396.7  7625.4726  7.8690728
396.8  7716.1473  7.8689328
396.9  7667.7798  7.8687928
397  7664.403  7.8686528
397.1  7588.9282  7.8685128
397.2  7709.794  7.8683728
397.3  7684.9784  7.8682329
397.4  7710.7571  7.8680929
397.5  7616.1772  7.8679529
397.6  7779.6511  7.8678129
397.7  7751.9764  7.867673
397.8  7695.1754  7.867533
397.9  7755.113  7.867393
398  7699.8411  7.867253
398.1  7690.963  7.8671131
398.2  7743.2067  7.8669731
398.3  7703.7646  7.8668331
398.4  7765.8345  7.8666931
398.5  7745.2967  7.8665532
398.6  7642.9185  7.8664132
398.7  7587.6704  7.8662732
398.8  7688.4914  7.8661333
398.9  7724.0741  7.8659933
399  7621.3199  7.8658533
399.1  7645.7284  7.8657133
399.2  7723.1145  7.8655734
399.3  7709.3521  7.8654334
399.4  7742.4899  7.8652935
399.5  7637.2533  7.8651535
399.6  7709.0704  7.8650135
399.7  7743.455  7.8648736
399.8  7652.5103  7.8647336
399.9  7647.4663  7.8645936
400  7761.6482  7.8644537
400.1  7674.9062  7.8643137
400.2  7700.7649  7.8641738
400.3  7822.7753  7.8640338
400.4  7668.0099  7.8638939
400.5  7658.7631  7.8637539
400.6  7669.7866  7.8636139
400.7  7731.3266  7.863474
400.8  7732.2293  7.863334
400.9  7744.21  7.8631941
401  7876.368  7.8630541
401.1  7727.3516  7.8629142
401.2  7707.7924  7.8627742
401.3  7770.1599  7.8626343
401.4  7706.8887  7.8624943
401.5  7764.7513  7.8623544
401.6  7736.3438  7.8622145
401.7  7748.9148  7.8620745
401.8  7738.4173  7.8619346
401.9  7759.6012  7.8617946
402  7821.7509  7.8616547
402.1  7832.7121  7.8615148
402.2  7745.2828  7.8613748
402.3  7720.6731  7.8612349
402.4  7804.5797  7.8610949
402.5  7841.4653  7.860955
402.6  7764.8942  7.8608151
402.7  7760.9211  7.8606751
402.8  7809.2209  7.8605352
402.9  7791.4621  7.8603953
403  7825.7776  7.8602553
403.1  7908.8496  7.8601154
403.2  7825.7933  7.8599755
403.3  7838.9547  7.8598356
403.4  7814.7897  7.8596956
403.5  7706.1641  7.8595557
403.6  7797.4091  7.8594158
403.7  7767.2201  7.8592759
403.8  7685.7215  7.859136
403.9  7729.7547  7.858996
404  7758.5716  7.8588561
404.1  7735.4302  7.8587162
404.2  7805.8947  7.8585763
404.3  7812.2642  7.8584364
404.4  7688.3039  7.8582965
404.5  7724.0064  7.8581565
404.6  7805.3164  7.8580166
404.7  7775.3854  7.8578767
404.8  7918.8135  7.8577368
404.9  7983.3019  7.8575969
405  7854.5412  7.857457
405.1  7852.5293  7.8573171
405.2  7844.3688  7.8571772
405.3  7858.8958  7.8570373
405.4  7825.142  7.8568974
405.5  7893.8  7.8567575
405.6  7836.9243  7.8566176
405.7  7941.2655  7.8564777
405.8  7930.7115  7.8563378
405.9  7895.2824  7.8561979
406  7758.5739  7.856058
406.1  7870.9347  7.8559181
406.2  7848.9098  7.8557782
406.3  7841.6677  7.8556383
406.4  7841.8  7.8554985
406.5  7899.6396  7.8553586
406.6  8033.1262  7.8552187
406.7  7889.0939  7.8550788
406.8  7791.2429  7.8549389
406.9  7907.6461  7.854799
407  7992.109  7.8546592
407.1  8059.272  7.8545193
407.2  8070.8986  7.8543794
407.3  8171.245  7.8542395
407.4  8213.869  7.8540997
407.5  8239.182  7.8539598
407.6  8345.5358  7.8538199
407.7  8457.0184  7.85368
407.8  8497.3074  7.8535402
407.9  8594.4898  7.8534003
408  8748.046  7.8532605
408.1  8723.8771  7.8531206
408.2  8737.9956  7.8529807
408.3  8835.9913  7.8528409
408.4  8800.6426  7.852701
408.5  8840.907  7.8525612
408.6  8794.4022  7.8524213
408.7  8676.1435  7.8522814
408.8  8539.206  7.8521416
408.9  8506.0599  7.8520017
409  8377.9477  7.8518619
409.1  8272.4018  7.851722
409.2  8292.4681  7.8515822
409.3  8087.8519  7.8514424
409.4  8028.6263  7.8513025
409.5  7958.8806  7.8511627
409.6  8070.856  7.8510228
409.7  7952.2298  7.850883
409.8  8005.5895  7.8507432
409.9  7956.9943  7.8506033
410  8049.2627  7.8504635
410.1  7948.5551  7.8503237
410.2  7983.6312  7.8501838
410.3  8030.5488  7.850044
410.4  8080.6755  7.8499042
410.5  8054.5865  7.8497643
410.6  7962.8563  7.8496245
410.7  7923.8715  7.8494847
410.8  7927.9165  7.8493449
410.9  7993.5541  7.8492051
411  8007.0304  7.8490652
411.1  7952.8106  7.8489254
411.2  7977.7049  7.8487856
411.3  7969.2772  7.8486458
411.4  7919.9167  7.848506
411.5  7977.5087  7.8483662
411.6  7985.4239  7.8482264
411.7  7931.5741  7.8480866
411.8  7953.2021  7.8479468
411.9  7981.6087  7.847807
412  7961.7581  7.8476672
412.1  7929.5354  7.8475274
412.2  7974.2899  7.8473876
412.3  7953.625  7.8472478
412.4  7969.3364  7.847108
412.5  7967.927  7.8469682
412.6  7968.8597  7.8468284
412.7  7967.9102  7.8466886
412.8  7928.1893  7.8465488
412.9  7992.8165  7.8464091
413  7911.5133  7.8462693
413.1  7896.3721  7.8461295
413.2  8005.3613  7.8459897
413.3  8050.6798  7.8458499
413.4  7971.1588  7.8457102
413.5  8075.8567  7.8455704
413.6  8011.9334  7.8454306
413.7  7951.3843  7.8452909
413.8  8090.712  7.8451511
413.9  8104.8219  7.8450113
414  8019.7868  7.8448716
414.1  8097.8292  7.8447318
414.2  8041.854  7.8445921
414.3  7973.0726  7.8444523
414.4  7915.3367  7.8443125
414.5  7866.2142  7.8441728
414.6  8103.8579  7.844033
414.7  8120.0935  7.8438933
414.8  8037.592  7.8437535
414.9  8066.3633  7.8436138
415  8064.9119  7.8434741
415.1  8032.4755  7.8433343
415.2  7955.92  7.8431946
415.3  8093.7729  7.8430548
415.4  8188.4822  7.8429151
415.5  8046.3196  7.8427754
415.6  7989.7725  7.8426356
415.7  8058.6273  7.8424959
415.8  8088.0469  7.8423562
415.9  8162.6582  7.8422165
416  8197.9  7.8420767
416.1  8060.1593  7.841937
416.2  8125.5984  7.8417973
416.3  8081.1589  7.8416576
416.4  8081.8024  7.8415179
416.5  8036.4544  7.8413782
416.6  8050.5887  7.8412384
416.7  8018.505  7.8410987
416.8  8083.5577  7.840959
416.9  8007.8409  7.8408193
417  8031.4748  7.8406796
417.1  8125.7109  7.8405399
417.2  8115.7841  7.8404002
417.3  8067.2384  7.8402605
417.4  8135.9008  7.8401208
417.5  8122.1021  7.8399811
417.6  8032.1475  7.8398415
417.7  8000.4739  7.8397018
417.8  8116.6762  7.8395621
417.9  8004.2015  7.8394224
418  8048.7806  7.8392827
418.1  8044.2609  7.839143
418.2  8174.1878  7.8390034
418.3  8243.114  7.8388637
418.4  8156.5683  7.838724
418.5  8088.6326  7.8385843
418.6  8227.9509  7.8384447
418.7  8307.8405  7.838305
418.8  8128.0997  7.8381654
418.9  8137.8667  7.8380257
419  8112.6401  7.837886
419.1  8175.2636  7.8377464
419.2  8094.2566  7.8376067
419.3  8128.8442  7.8374671
419.4  8177.6502  7.8373274
419.5  8186.2584  7.8371878
419.6  8142.2399  7.8370481
419.7  8142.811  7.8369085
419.8  8246.5696  7.8367688
419.9  8096.6089  7.8366292
420  8227.8816  7.8364896
420.1  8218.3806  7.8363499
420.2  8058.9673  7.8362103
420.3  8073.1835  7.8360707
420.4  8219.1765  7.8359311
420.5  8252.1799  7.8357914
420.6  8305.3815  7.8356518
420.7  8214.5045  7.8355122
420.8  8125.9713  7.8353726
420.9  8106.8402  7.835233
421  8194.0398  7.8350933
421.1  8176.8335  7.8349537
421.2  8086.6071  7.8348141
421.3  8098.633  7.8346745
421.4  8164.8506  7.8345349
421.5  8155.5574  7.8343953
421.6  8246.7931  7.8342557
421.7  8267.6718  7.8341161
421.8  8299.937  7.8339765
421.9  8311.463  7.8338369
422  8342.7909  7.8336974
422.1  8358.9192  7.8335578
422.2  8309.9831  7.8334182
422.3  8243.3593  7.8332786
422.4  8158.4186  7.833139
422.5  8152.0417  7.8329994
422.6  8323.8606  7.8328599
422.7  8377.7927  7.8327203
422.8  8245.37  7.8325807
422.9  8182.6604  7.8324412
423  8144.7124  7.8323016
423.1  8300.5332  7.832162
423.2  8282.8139  7.8320225
423.3  8313.8252  7.8318829
423.4  8263.9443  7.8317434
423.5  8172.9393  7.8316038
423.6  8211.2304  7.8314643
423.7  8316.6417  7.8313247
423.8  8313.837  7.8311852
423.9  8225.5556  7.8310456
424  8340.679  7.8309061
424.1  8362.5698  7.8307666
424.2  8196.7457  7.830627
424.3  8196.0568  7.8304875
424.4  8380.3611  7.830348
424.5  8297.3477  7.8302084
424.6  8285.6943  7.8300689
424.7  8209.2513  7.8299294
424.8  8422.2168  7.8297899
424.9  8384.7129  7.8296504
425  8354.6549  7.8295109
425.1  8248.3842  7.8293713
425.2  8319.5245  7.8292318
425.3  8207.033  7.8290923
425.4  8243.3622  7.8289528
425.5  8357.2368  7.8288133
425.6  8269.7523  7.8286738
425.7  8162.6135  7.8285343
425.8  8314.0214  7.8283948
425.9  8329.0169  7.8282554
426  8457.2294  7.8281159
426.1  8374.2551  7.8279764
426.2  8283.0717  7.8278369
426.3  8211.9286  7.8276974
426.4  8327.9294  7.827558
426.5  8345.5402  7.8274185
426.6  8250.723  7.827279
426.7  8417.7862  7.8271395
426.8  8364.9255  7.8270001
426.9  8353.6807  7.8268606
427  8387.779  7.8267212
427.1  8268.7589  7.8265817
427.2  8405.279  7.8264422
427.3  8296.0078  7.8263028
427.4  8311.9763  7.8261633
427.5  8429.1955  7.8260239
427.6  8436.2585  7.8258845
427.7  8551.7188  7.825745
427.8  8422.4898  7.8256056
427.9  8398.8479  7.8254661
428  8343.2379  7.8253267
428.1  8459.3053  7.8251873
428.2  8378.2031  7.8250479
428.3  8499.7716  7.8249084
428.4  8412.8657  7.824769
428.5  8510.6722  7.8246296
428.6  8511.8196  7.8244902
428.7  8410.0591  7.8243508
428.8  8407.4105  7.8242114
428.9  8424.3738  7.8240719
429  8500.7225  7.8239325
429.1  8374.832  7.8237931
429.2  8424.0474  7.8236537
429.3  8438.197  7.8235143
429.4  8462.2419  7.823375
429.5  8459.1603  7.8232356
429.6  8502.0583  7.8230962
429.7  8415.8773  7.8229568
429.8  8510.6165  7.8228174
429.9  8349.3239  7.822678
430  8476.2771  7.8225387

