# Created by:        SpecsLab Prodigy, Version 4.84.1-r101483 
#
# XY-Serializer Export Settings:
#   Comment Prefix:           #
#   Output Meta Data:         yes
#   Energy Axis:              Kinetic Energy
#   Count Rate:               Counts per Second
#   Separate Scan Data:       no
#   Separate Channel Data:    no
#   External Channel Data:    yes
#   Transmission Function:    yes
#   Error Bar:                no
#   Operation Results:        yes
#   Time Zone Format:         UTC
#
# Group:                        L-serine pH 7 500 mM
#
# Region:                       VBM
# Spectrum ID:                  688
# Acquisition Date:             03/12/26 15:11:21 UTC
# Analysis Method:              XPS
# Analyzer:                     Phoibos
# Analyzer Lens:                LargeArea:3.5kV
# Analyzer Slit:                5:7x20\B:open
# Scan Mode:                    FixedAnalyzerTransmission
# Curves/Scan:                  1
# Values/Curve:                 251
# Dwell Time:                   0.1
# Excitation Energy:            460
# Kinetic Energy:               440
# Pass Energy:                  10
# Bias Voltage:                 220
# Detector Voltage:             1920
# Eff. Workfunction:            0
# Source:                       Monochromator
# Comment:                      

# Cycle: 0
#
# Number of Scans: 2

# Cycle: 0, Curve: 0
#
# Acquisition Date:             03/12/26 15:11:21 UTC
# ColumnLabels:                 energy counts/s transmission
#
440  3723.0708  7.8086167
440.1  3674.2866  7.8084776
440.2  3836.9264  7.8083386
440.3  3501.9704  7.8081995
440.4  3294.8713  7.8080605
440.5  3343.8522  7.8079215
440.6  3211.5633  7.8077824
440.7  3110.9357  7.8076434
440.8  3051.2627  7.8075044
440.9  3004.3642  7.8073653
441  2906.0796  7.8072263
441.1  2811.1247  7.8070873
441.2  2706.3265  7.8069483
441.3  2572.4191  7.8068093
441.4  2563.525  7.8066702
441.5  2579.3003  7.8065312
441.6  2376.9277  7.8063922
441.7  2543.8175  7.8062532
441.8  2472.8506  7.8061142
441.9  2453.0398  7.8059752
442  2292.3517  7.8058363
442.1  2513.4478  7.8056973
442.2  2406.2171  7.8055583
442.3  2288.1404  7.8054193
442.4  2237.2942  7.8052803
442.5  2230.7177  7.8051414
442.6  2190.989  7.8050024
442.7  2105.3546  7.8048634
442.8  2001.377  7.8047245
442.9  2188.7351  7.8045855
443  2116.436  7.8044466
443.1  1812.3333  7.8043076
443.2  1961.3159  7.8041687
443.3  1852.9256  7.8040297
443.4  1829.8377  7.8038908
443.5  1869.9875  7.8037518
443.6  1659.3155  7.8036129
443.7  1557.5041  7.803474
443.8  1471.5928  7.8033351
443.9  1640.9564  7.8031961
444  1669.8683  7.8030572
444.1  1663.7415  7.8029183
444.2  1651.468  7.8027794
444.3  1659.3454  7.8026405
444.4  1665.535  7.8025016
444.5  1699.4734  7.8023627
444.6  1831.476  7.8022238
444.7  1864.2025  7.8020849
444.8  1843.0725  7.801946
444.9  1900.9999  7.8018071
445  1929.2401  7.8016682
445.1  2036.7737  7.8015294
445.2  2436.4416  7.8013905
445.3  2547.3848  7.8012516
445.4  2714.0882  7.8011128
445.5  2810.3954  7.8009739
445.6  3055.9457  7.800835
445.7  3356.3813  7.8006962
445.8  3497.1107  7.8005573
445.9  3953.9819  7.8004185
446  4294.9782  7.8002796
446.1  4747.6458  7.8001408
446.2  5139.641  7.800002
446.3  5759.936  7.7998631
446.4  6098.599  7.7997243
446.5  6330.221  7.7995855
446.6  6748.7251  7.7994467
446.7  7481.392  7.7993078
446.8  7789.7207  7.799169
446.9  8437.521  7.7990302
447  8749.2441  7.7988914
447.1  9335.0959  7.7987526
447.2  9740.1582  7.7986138
447.3  9748.7232  7.798475
447.4  9896.9047  7.7983362
447.5  9989.9113  7.7981974
447.6  10510.308  7.7980586
447.7  10167.47  7.7979199
447.8  10134.209  7.7977811
447.9  9986.7806  7.7976423
448  10030.85  7.7975035
448.1  9866.8935  7.7973648
448.2  9831.561  7.797226
448.3  9749.7485  7.7970873
448.4  9917.2354  7.7969485
448.5  9946.47  7.7968098
448.6  9156.5938  7.796671
448.7  9126.5356  7.7965323
448.8  9000.0434  7.7963935
448.9  8974.1985  7.7962548
449  8684.7482  7.7961161
449.1  8083.5008  7.7959773
449.2  7840.8258  7.7958386
449.3  7753.5584  7.7956999
449.4  7280.718  7.7955612
449.5  7387.0655  7.7954225
449.6  7511.2812  7.7952838
449.7  8010.2212  7.7951451
449.8  8687.1092  7.7950064
449.9  9573.6209  7.7948677
450  10615.318  7.794729
450.1  11853.566  7.7945903
450.2  13635.13  7.7944516
450.3  15701.234  7.7943129
450.4  17339.468  7.7941742
450.5  18999.834  7.7940356
450.6  21154.901  7.7938969
450.7  22172.057  7.7937582
450.8  23138.423  7.7936196
450.9  24072.203  7.7934809
451  24614.172  7.7933423
451.1  24033.009  7.7932036
451.2  23007.07  7.793065
451.3  22212.318  7.7929263
451.4  20537.757  7.7927877
451.5  19266.945  7.7926491
451.6  18059.462  7.7925104
451.7  17248.925  7.7923718
451.8  17378.791  7.7922332
451.9  16831.887  7.7920946
452  16608.716  7.7919559
452.1  16678.682  7.7918173
452.2  17216.677  7.7916787
452.3  17902.999  7.7915401
452.4  18878.576  7.7914015
452.5  20299.507  7.7912629
452.6  21631.211  7.7911244
452.7  23593.06  7.7909858
452.8  26674.324  7.7908472
452.9  29283.913  7.7907086
453  29397.065  7.79057
453.1  27665.56  7.7904315
453.2  24092.317  7.7902929
453.3  20688.119  7.7901543
453.4  17265.053  7.7900158
453.5  15035.38  7.7898772
453.6  14926.093  7.7897387
453.7  15551.995  7.7896001
453.8  16766.546  7.7894616
453.9  17426.052  7.7893231
454  17949.641  7.7891845
454.1  19060.278  7.789046
454.2  19608.443  7.7889075
454.3  19931.006  7.7887689
454.4  20056.986  7.7886304
454.5  19837.478  7.7884919
454.6  18987.733  7.7883534
454.7  18391.197  7.7882149
454.8  17095.687  7.7880764
454.9  15782.832  7.7879379
455  14230.959  7.7877994
455.1  12266.778  7.7876609
455.2  10287.829  7.7875224
455.3  8911.6858  7.787384
455.4  7263.9435  7.7872455
455.5  5786.7555  7.787107
455.6  4532.388  7.7869686
455.7  3515.2669  7.7868301
455.8  2708.9319  7.7866916
455.9  2058.7125  7.7865532
456  1719.7036  7.7864147
456.1  1395.3681  7.7862763
456.2  1155.4667  7.7861378
456.3  1003.7732  7.7859994
456.4  843.28726  7.785861
456.5  676.08108  7.7857225
456.6  737.31164  7.7855841
456.7  606.63559  7.7854457
456.8  430.5609  7.7853073
456.9  445.76486  7.7851689
457  392.03614  7.7850304
457.1  327.32642  7.784892
457.2  254.4779  7.7847536
457.3  174.6374  7.7846152
457.4  234.84043  7.7844769
457.5  155.86331  7.7843385
457.6  147.12882  7.7842001
457.7  116.68469  7.7840617
457.8  119.99992  7.7839233
457.9  132.13321  7.783785
458  150.02073  7.7836466
458.1  170.37533  7.7835082
458.2  154.80254  7.7833699
458.3  72.458925  7.7832315
458.4  137.81145  7.7830932
458.5  147.91279  7.7829548
458.6  112.12744  7.7828165
458.7  124.37046  7.7826781
458.8  148.67741  7.7825398
458.9  159.61334  7.7824015
459  111.3216  7.7822632
459.1  82.484495  7.7821248
459.2  103.84304  7.7819865
459.3  93.34074  7.7818482
459.4  110.2849  7.7817099
459.5  103.08099  7.7815716
459.6  110.72804  7.7814333
459.7  108.76596  7.781295
459.8  116.79128  7.7811567
459.9  105.8214  7.7810184
460  98.713421  7.7808801
460.1  99.998445  7.7807419
460.2  115.07559  7.7806036
460.3  120.09667  7.7804653
460.4  125.5897  7.7803271
460.5  109.65738  7.7801888
460.6  82.926875  7.7800505
460.7  77.605989  7.7799123
460.8  106.45522  7.779774
460.9  99.953995  7.7796358
461  117.91297  7.7794976
461.1  105.15387  7.7793593
461.2  106.243  7.7792211
461.3  92.093346  7.7790829
461.4  93.121845  7.7789447
461.5  56.15765  7.7788064
461.6  71.025565  7.7786682
461.7  81.831287  7.77853
461.8  107.77386  7.7783918
461.9  90.596399  7.7782536
462  109.71826  7.7781154
462.1  68.880325  7.7779772
462.2  73.733245  7.777839
462.3  94.051525  7.7777009
462.4  108.19908  7.7775627
462.5  69.881289  7.7774245
462.6  123.53717  7.7772863
462.7  91.976432  7.7771482
462.8  66.281475  7.77701
462.9  70.157375  7.7768719
463  96.05944  7.7767337
463.1  83.898129  7.7765956
463.2  84.381985  7.7764574
463.3  54.439001  7.7763193
463.4  63.394945  7.7761812
463.5  77.132555  7.776043
463.6  82.366395  7.7759049
463.7  101.37949  7.7757668
463.8  84.1859  7.7756287
463.9  111.38333  7.7754906
464  71.587924  7.7753525
464.1  96.675106  7.7752144
464.2  66.256204  7.7750763
464.3  77.940701  7.7749382
464.4  80.88898  7.7748001
464.5  111.22409  7.774662
464.6  129.41857  7.7745239
464.7  103.19289  7.7743858
464.8  108.5902  7.7742478
464.9  87.834065  7.7741097
465  82.09389  7.7739716

