# Created by:        SpecsLab Prodigy, Version 4.84.1-r101483 
#
# XY-Serializer Export Settings:
#   Comment Prefix:           #
#   Output Meta Data:         yes
#   Energy Axis:              Kinetic Energy
#   Count Rate:               Counts per Second
#   Separate Scan Data:       no
#   Separate Channel Data:    no
#   External Channel Data:    yes
#   Transmission Function:    yes
#   Error Bar:                no
#   Operation Results:        yes
#   Time Zone Format:         UTC
#
# Group:                        L-serine pH 7 500 mM
#
# Region:                       N 1s 120
# Spectrum ID:                  682
# Acquisition Date:             03/12/26 14:39:16 UTC
# Analysis Method:              XPS
# Analyzer:                     Phoibos
# Analyzer Lens:                LargeArea:3.5kV
# Analyzer Slit:                5:7x20\B:open
# Scan Mode:                    FixedAnalyzerTransmission
# Curves/Scan:                  1
# Values/Curve:                 301
# Dwell Time:                   0.1
# Excitation Energy:            530
# Kinetic Energy:               110
# Pass Energy:                  10
# Bias Voltage:                 220
# Detector Voltage:             1920
# Eff. Workfunction:            0
# Source:                       Monochromator
# Comment:                      

# Cycle: 0
#
# Number of Scans: 25

# Cycle: 0, Curve: 0
#
# Acquisition Date:             03/12/26 14:39:16 UTC
# ColumnLabels:                 energy counts/s transmission
#
110  197.32385  8.149621
110.1  199.73444  8.1497062
110.2  207.85659  8.149791
110.3  208.49649  8.1498754
110.4  203.57622  8.1499594
110.5  200.29209  8.1500429
110.6  212.58617  8.1501259
110.7  201.73399  8.1502086
110.8  212.61051  8.1502908
110.9  191.32008  8.1503726
111  198.97778  8.1504539
111.1  199.96227  8.1505348
111.2  209.57013  8.1506153
111.3  219.1214  8.1506954
111.4  218.13976  8.150775
111.5  205.37305  8.1508542
111.6  216.74143  8.150933
111.7  198.30167  8.1510114
111.8  212.30159  8.1510893
111.9  217.20426  8.1511669
112  219.18931  8.151244
112.1  219.16881  8.1513207
112.2  222.35867  8.1513969
112.3  211.12693  8.1514728
112.4  201.46339  8.1515482
112.5  203.18823  8.1516233
112.6  208.91023  8.1516979
112.7  212.11644  8.1517721
112.8  214.15277  8.1518458
112.9  219.80118  8.1519192
113  217.36644  8.1519922
113.1  215.87226  8.1520647
113.2  207.46279  8.1521369
113.3  228.86774  8.1522086
113.4  221.60441  8.1522799
113.5  209.20017  8.1523509
113.6  218.2792  8.1524214
113.7  216.49647  8.1524915
113.8  228.96444  8.1525612
113.9  216.4679  8.1526305
114  217.75984  8.1526995
114.1  217.38856  8.152768
114.2  228.66208  8.1528361
114.3  219.14855  8.1529038
114.4  221.86911  8.1529711
114.5  223.20222  8.153038
114.6  225.90445  8.1531046
114.7  224.22617  8.1531707
114.8  216.26835  8.1532364
114.9  222.60889  8.1533018
115  206.67615  8.1533667
115.1  212.73667  8.1534313
115.2  236.63522  8.1534954
115.3  218.18184  8.1535592
115.4  226.80577  8.1536226
115.5  214.59098  8.1536856
115.6  226.93758  8.1537482
115.7  225.29091  8.1538105
115.8  227.19075  8.1538723
115.9  213.48886  8.1539338
116  221.63047  8.1539948
116.1  227.49276  8.1540555
116.2  230.59578  8.1541159
116.3  203.50118  8.1541758
116.4  220.79891  8.1542353
116.5  216.39998  8.1542945
116.6  225.51109  8.1543533
116.7  237.74022  8.1544117
116.8  245.62629  8.1544698
116.9  234.69636  8.1545274
117  221.10632  8.1545847
117.1  223.70464  8.1546416
117.2  213.71409  8.1546982
117.3  224.91943  8.1547544
117.4  224.39662  8.1548102
117.5  230.30676  8.1548656
117.6  231.27042  8.1549206
117.7  224.46048  8.1549753
117.8  227.86034  8.1550296
117.9  227.62609  8.1550836
118  218.37794  8.1551372
118.1  219.65679  8.1551904
118.2  239.30181  8.1552433
118.3  231.18605  8.1552958
118.4  225.19264  8.1553479
118.5  232.3818  8.1553996
118.6  223.28288  8.155451
118.7  220.69819  8.1555021
118.8  217.1753  8.1555528
118.9  220.88992  8.1556031
119  222.03584  8.155653
119.1  233.67119  8.1557027
119.2  229.62971  8.1557519
119.3  231.62348  8.1558008
119.4  237.5328  8.1558493
119.5  229.3808  8.1558975
119.6  233.81589  8.1559453
119.7  243.87846  8.1559928
119.8  205.59194  8.1560399
119.9  215.13297  8.1560867
120  232.17819  8.1561331
120.1  220.68003  8.1561792
120.2  232.13711  8.1562249
120.3  233.44589  8.1562703
120.4  236.54751  8.1563153
120.5  239.89134  8.15636
120.6  251.82992  8.1564043
120.7  239.62228  8.1564483
120.8  228.57229  8.1564919
120.9  238.55754  8.1565352
121  229.05212  8.1565781
121.1  235.6573  8.1566207
121.2  233.79627  8.156663
121.3  232.62072  8.1567049
121.4  229.85888  8.1567465
121.5  226.18035  8.1567877
121.6  243.82378  8.1568286
121.7  232.33058  8.1568692
121.8  240.13318  8.1569094
121.9  240.27657  8.1569493
122  231.91897  8.1569889
122.1  234.96469  8.1570281
122.2  237.3767  8.157067
122.3  242.54295  8.1571055
122.4  225.61279  8.1571437
122.5  249.2256  8.1571816
122.6  233.65033  8.1572192
122.7  239.45526  8.1572564
122.8  229.81979  8.1572933
122.9  234.84045  8.1573298
123  240.39191  8.1573661
123.1  235.50075  8.157402
123.2  246.61901  8.1574375
123.3  236.44879  8.1574728
123.4  246.47989  8.1575077
123.5  252.17385  8.1575423
123.6  257.55488  8.1575766
123.7  251.23059  8.1576105
123.8  250.58492  8.1576442
123.9  238.88727  8.1576775
124  244.37962  8.1577104
124.1  242.05005  8.1577431
124.2  247.83929  8.1577754
124.3  251.47844  8.1578074
124.4  251.89615  8.1578391
124.5  243.71858  8.1578705
124.6  242.13296  8.1579016
124.7  246.00597  8.1579323
124.8  236.7792  8.1579627
124.9  242.27542  8.1579929
125  240.71234  8.1580226
125.1  254.54599  8.1580521
125.2  254.5782  8.1580813
125.3  251.3948  8.1581101
125.4  256.65722  8.1581387
125.5  251.74606  8.1581669
125.6  249.39151  8.1581948
125.7  252.59234  8.1582224
125.8  252.1912  8.1582497
125.9  251.90715  8.1582767
126  237.05028  8.1583034
126.1  246.51367  8.1583298
126.2  252.55647  8.1583558
126.3  252.27901  8.1583816
126.4  239.24542  8.158407
126.5  251.49744  8.1584322
126.6  261.21652  8.158457
126.7  246.49592  8.1584816
126.8  252.38957  8.1585058
126.9  262.2927  8.1585297
127  257.78024  8.1585533
127.1  246.27911  8.1585767
127.2  247.77675  8.1585997
127.3  252.85237  8.1586224
127.4  264.40039  8.1586448
127.5  268.82979  8.158667
127.6  260.92927  8.1586888
127.7  253.32403  8.1587103
127.8  255.25516  8.1587315
127.9  260.41536  8.1587525
128  265.98921  8.1587731
128.1  266.57077  8.1587934
128.2  251.14501  8.1588135
128.3  259.13771  8.1588332
128.4  258.63452  8.1588527
128.5  254.99652  8.1588719
128.6  276.37649  8.1588907
128.7  252.84232  8.1589093
128.8  266.51302  8.1589276
128.9  249.447  8.1589456
129  260.52012  8.1589633
129.1  251.41392  8.1589807
129.2  250.94598  8.1589979
129.3  250.01672  8.1590147
129.4  255.70616  8.1590313
129.5  249.45408  8.1590475
129.6  252.47297  8.1590635
129.7  251.60161  8.1590792
129.8  242.65759  8.1590946
129.9  253.38624  8.1591098
130  249.75208  8.1591246
130.1  259.33974  8.1591392
130.2  266.91343  8.1591534
130.3  265.41418  8.1591674
130.4  263.56853  8.1591811
130.5  247.52767  8.1591946
130.6  259.66386  8.1592077
130.7  270.53719  8.1592206
130.8  265.65562  8.1592332
130.9  265.07197  8.1592455
131  260.73141  8.1592575
131.1  250.67891  8.1592693
131.2  253.09104  8.1592808
131.3  270.08197  8.159292
131.4  272.60649  8.1593029
131.5  273.71312  8.1593136
131.6  263.9104  8.1593239
131.7  264.73018  8.159334
131.8  269.19559  8.1593439
131.9  262.71814  8.1593534
132  264.8843  8.1593627
132.1  268.88815  8.1593717
132.2  278.84946  8.1593804
132.3  284.02778  8.1593889
132.4  264.20729  8.1593971
132.5  282.15998  8.159405
132.6  321.42093  8.1594127
132.7  345.96588  8.1594201
132.8  337.47173  8.1594272
132.9  325.60049  8.1594341
133  298.0256  8.1594407
133.1  311.07744  8.159447
133.2  305.87418  8.159453
133.3  260.71734  8.1594588
133.4  265.80811  8.1594643
133.5  272.91646  8.1594696
133.6  268.96758  8.1594746
133.7  273.75267  8.1594793
133.8  274.26291  8.1594838
133.9  271.68046  8.159488
134  291.43576  8.1594919
134.1  275.70528  8.1594956
134.2  279.36057  8.159499
134.3  271.45657  8.1595022
134.4  282.18817  8.1595051
134.5  266.52573  8.1595078
134.6  269.87562  8.1595101
134.7  260.66472  8.1595123
134.8  259.39585  8.1595141
134.9  275.60614  8.1595158
135  272.76771  8.1595171
135.1  291.0377  8.1595182
135.2  270.2153  8.1595191
135.3  260.13731  8.1595196
135.4  266.88835  8.15952
135.5  272.98658  8.1595201
135.6  277.65668  8.1595199
135.7  283.14127  8.1595195
135.8  280.52944  8.1595188
135.9  282.28405  8.1595178
136  279.0956  8.1595167
136.1  275.29763  8.1595152
136.2  277.53222  8.1595136
136.3  264.93895  8.1595116
136.4  264.11706  8.1595094
136.5  271.18504  8.159507
136.6  286.35439  8.1595043
136.7  282.77809  8.1595014
136.8  279.68532  8.1594982
136.9  273.39324  8.1594948
137  272.28178  8.1594911
137.1  273.06681  8.1594872
137.2  282.0332  8.1594831
137.3  287.14252  8.1594787
137.4  307.03918  8.159474
137.5  303.31925  8.1594691
137.6  279.16846  8.159464
137.7  281.05894  8.1594586
137.8  290.04049  8.159453
137.9  283.66006  8.1594471
138  284.27816  8.159441
138.1  286.12843  8.1594346
138.2  290.74504  8.1594281
138.3  276.01881  8.1594212
138.4  274.88505  8.1594142
138.5  279.12147  8.1594069
138.6  272.83642  8.1593993
138.7  283.10908  8.1593915
138.8  278.41184  8.1593835
138.9  261.02911  8.1593752
139  288.63913  8.1593667
139.1  294.26773  8.159358
139.2  282.88124  8.159349
139.3  289.1654  8.1593398
139.4  292.23237  8.1593304
139.5  277.53877  8.1593207
139.6  280.85786  8.1593108
139.7  290.57659  8.1593007
139.8  285.53172  8.1592903
139.9  282.2148  8.1592797
140  281.64658  8.1592688

