# Created by:        SpecsLab Prodigy, Version 4.84.1-r101483 
#
# XY-Serializer Export Settings:
#   Comment Prefix:           #
#   Output Meta Data:         yes
#   Energy Axis:              Kinetic Energy
#   Count Rate:               Counts per Second
#   Separate Scan Data:       no
#   Separate Channel Data:    no
#   External Channel Data:    yes
#   Transmission Function:    yes
#   Error Bar:                no
#   Operation Results:        yes
#   Time Zone Format:         UTC
#
# Group:                        L-serine pH 7 500 mM
#
# Region:                       VBM
# Spectrum ID:                  616
# Acquisition Date:             03/12/26 05:34:56 UTC
# Analysis Method:              XPS
# Analyzer:                     Phoibos
# Analyzer Lens:                LargeArea:3.5kV
# Analyzer Slit:                5:7x20\B:open
# Scan Mode:                    FixedAnalyzerTransmission
# Curves/Scan:                  1
# Values/Curve:                 251
# Dwell Time:                   0.1
# Excitation Energy:            730
# Kinetic Energy:               710
# Pass Energy:                  10
# Bias Voltage:                 220
# Detector Voltage:             1920
# Eff. Workfunction:            0
# Source:                       Monochromator
# Comment:                      

# Cycle: 0
#
# Number of Scans: 2

# Cycle: 0, Curve: 0
#
# Acquisition Date:             03/12/26 05:34:56 UTC
# ColumnLabels:                 energy counts/s transmission
#
710  188.22696  7.4539332
710.1  207.61282  7.4538108
710.2  225.23445  7.4536884
710.3  217.66337  7.4535661
710.4  197.12882  7.4534437
710.5  215.81566  7.4533214
710.6  183.43739  7.453199
710.7  185.60595  7.4530767
710.8  184.00227  7.4529544
710.9  152.62029  7.4528321
711  173.02055  7.4527098
711.1  187.475  7.4525875
711.2  187.94886  7.4524652
711.3  171.49439  7.4523429
711.4  227.31873  7.4522206
711.5  189.46324  7.4520984
711.6  160.28458  7.4519761
711.7  203.76995  7.4518538
711.8  98.125845  7.4517316
711.9  132.50884  7.4516093
712  146.92254  7.4514871
712.1  124.50148  7.4513649
712.2  127.36697  7.4512426
712.3  128.04946  7.4511204
712.4  80.446765  7.4509982
712.5  124.50329  7.450876
712.6  101.93466  7.4507538
712.7  104.9539  7.4506316
712.8  108.00107  7.4505094
712.9  144.90776  7.4503873
713  131.13307  7.4502651
713.1  89.940829  7.4501429
713.2  126.22129  7.4500208
713.3  87.889049  7.4498986
713.4  89.907151  7.4497765
713.5  105.14835  7.4496544
713.6  124.2765  7.4495322
713.7  111.82605  7.4494101
713.8  153.09975  7.449288
713.9  137.25437  7.4491659
714  133.3387  7.4490438
714.1  93.095085  7.4489217
714.2  132.71567  7.4487996
714.3  152.71883  7.4486775
714.4  182.59795  7.4485554
714.5  217.7159  7.4484334
714.6  220.7189  7.4483113
714.7  207.16968  7.4481893
714.8  267.13924  7.4480672
714.9  273.23697  7.4479452
715  246.61105  7.4478232
715.1  246.792  7.4477011
715.2  297.31348  7.4475791
715.3  285.48368  7.4474571
715.4  339.09934  7.4473351
715.5  357.55108  7.4472131
715.6  430.54497  7.4470911
715.7  414.53166  7.4469691
715.8  474.73716  7.4468471
715.9  485.40076  7.4467252
716  509.0767  7.4466032
716.1  526.60373  7.4464813
716.2  608.12561  7.4463593
716.3  568.32946  7.4462374
716.4  645.24979  7.4461154
716.5  735.35618  7.4459935
716.6  654.87936  7.4458716
716.7  662.72117  7.4457497
716.8  655.4494  7.4456278
716.9  608.74792  7.4455059
717  673.37025  7.445384
717.1  763.12647  7.4452621
717.2  685.46514  7.4451402
717.3  717.52658  7.4450183
717.4  623.29882  7.4448964
717.5  602.75838  7.4447746
717.6  584.99021  7.4446527
717.7  636.00037  7.4445309
717.8  626.23809  7.444409
717.9  621.0552  7.4442872
718  686.0852  7.4441654
718.1  549.61561  7.4440436
718.2  537.22562  7.4439218
718.3  487.07427  7.4437999
718.4  460.60643  7.4436781
718.5  523.64098  7.4435564
718.6  489.17723  7.4434346
718.7  563.04082  7.4433128
718.8  586.95803  7.443191
718.9  730.06985  7.4430693
719  831.24017  7.4429475
719.1  947.38027  7.4428257
719.2  969.60057  7.442704
719.3  1089.9745  7.4425823
719.4  1103.3041  7.4424605
719.5  1206.2216  7.4423388
719.6  1277.0043  7.4422171
719.7  1384.5275  7.4420954
719.8  1330.7973  7.4419737
719.9  1305.5781  7.441852
720  1174.9474  7.4417303
720.1  1339.2048  7.4416086
720.2  1321.3235  7.4414869
720.3  1386.1314  7.4413653
720.4  1193.3898  7.4412436
720.5  1252.1672  7.441122
720.6  1306.5008  7.4410003
720.7  1176.9166  7.4408787
720.8  1233.4261  7.440757
720.9  1165.1354  7.4406354
721  1221.3712  7.4405138
721.1  1197.2957  7.4403922
721.2  1263.7341  7.4402706
721.3  1165.1621  7.440149
721.4  1378.0081  7.4400274
721.5  1568.5626  7.4399058
721.6  1490.7071  7.4397842
721.7  1477.7134  7.4396626
721.8  1304.1047  7.4395411
721.9  1241.2294  7.4394195
722  1084.2418  7.4392979
722.1  1040.7408  7.4391764
722.2  938.23894  7.4390549
722.3  964.6389  7.4389333
722.4  1069.9351  7.4388118
722.5  1020.1703  7.4386903
722.6  1161.5311  7.4385688
722.7  1193.5042  7.4384473
722.8  1234.1094  7.4383258
722.9  1279.6286  7.4382043
723  1251.0834  7.4380828
723.1  1429.122  7.4379613
723.2  1192.2188  7.4378398
723.3  1350.5758  7.4377184
723.4  1249.8628  7.4375969
723.5  1297.6051  7.4374755
723.6  1096.839  7.437354
723.7  940.9184  7.4372326
723.8  938.82736  7.4371112
723.9  666.13917  7.4369897
724  524.61733  7.4368683
724.1  512.51585  7.4367469
724.2  474.15782  7.4366255
724.3  339.25221  7.4365041
724.4  238.10832  7.4363827
724.5  196.69425  7.4362614
724.6  155.27545  7.43614
724.7  148.34148  7.4360186
724.8  121.84425  7.4358972
724.9  67.960975  7.4357759
725  73.762295  7.4356545
725.1  62.220915  7.4355332
725.2  48.812115  7.4354119
725.3  38.727405  7.4352905
725.4  36.39122  7.4351692
725.5  25.22945  7.4350479
725.6  12.221734  7.4349266
725.7  34.825576  7.4348053
725.8  14.70994  7.434684
725.9  13.7406  7.4345627
726  24.1616  7.4344414
726.1  13.757715  7.4343202
726.2  14.744085  7.4341989
726.3  2.18315  7.4340777
726.4  6.41285  7.4339564
726.5  12.434665  7.4338352
726.6  13.97378  7.4337139
726.7  12.51547  7.4335927
726.8  14.918485  7.4334715
726.9  8.630095  7.4333502
727  15.8126  7.433229
727.1  4.276505  7.4331078
727.2  9.3195  7.4329866
727.3  12.55715  7.4328654
727.4  2.9104  7.4327443
727.5  11.626515  7.4326231
727.6  8.373485  7.4325019
727.7  4.09835  7.4323807
727.8  13.553  7.4322596
727.9  4.3529  7.4321384
728  11.7965  7.4320173
728.1  11.19925  7.4318962
728.2  1.3661  7.431775
728.3  6.53605  7.4316539
728.4  7.859845  7.4315328
728.5  9.238005  7.4314117
728.6  4.9577  7.4312906
728.7  15.46435  7.4311695
728.8  15.34445  7.4310484
728.9  11.706  7.4309273
729  12.78349  7.4308062
729.1  20.638125  7.4306852
729.2  12.391685  7.4305641
729.3  13.85057  7.4304431
729.4  2.86363  7.430322
729.5  0  7.430201
729.6  10.766515  7.4300799
729.7  6.369855  7.4299589
729.8  2.86363  7.4298379
729.9  6.0596  7.4297169
730  11.677095  7.4295959
730.1  6.838105  7.4294749
730.2  16.1449  7.4293539
730.3  9.3619  7.4292329
730.4  22.74041  7.4291119
730.5  11.57389  7.4289909
730.6  9.281  7.42887
730.7  7.00425  7.428749
730.8  7.736  7.4286281
730.9  1.58285  7.4285071
731  2.779  7.4283862
731.1  6.15315  7.4282653
731.2  5.98322  7.4281443
731.3  9.39968  7.4280234
731.4  11.0596  7.4279025
731.5  7.2767  7.4277816
731.6  14.22151  7.4276607
731.7  12.52304  7.4275398
731.8  8.468419  7.4274189
731.9  9.272051  7.427298
732  9.60883  7.4271772
732.1  13.2548  7.4270563
732.2  2.13637  7.4269355
732.3  9.31505  7.4268146
732.4  6.96645  7.4266938
732.5  19.48878  7.4265729
732.6  2.43395  7.4264521
732.7  5.38735  7.4263313
732.8  7.1787  7.4262105
732.9  13.71544  7.4260897
733  14.06356  7.4259689
733.1  7.81685  7.4258481
733.2  10.1744  7.4257273
733.3  18.162565  7.4256065
733.4  12.34796  7.4254857
733.5  0.812575  7.4253649
733.6  11.622065  7.4252442
733.7  10.769585  7.4251234
733.8  17.477615  7.4250027
733.9  15.130735  7.4248819
734  0  7.4247612
734.1  7.4814  7.4246405
734.2  3.7571  7.4245198
734.3  6.2429  7.424399
734.4  7.5186  7.4242783
734.5  3.63459  7.4241576
734.6  6.36541  7.4240369
734.7  7.3493  7.4239163
734.8  2.73155  7.4237956
734.9  4.91915  7.4236749
735  0  7.4235542

