# Created by:        SpecsLab Prodigy, Version 4.84.1-r101483 
#
# XY-Serializer Export Settings:
#   Comment Prefix:           #
#   Output Meta Data:         yes
#   Energy Axis:              Kinetic Energy
#   Count Rate:               Counts per Second
#   Separate Scan Data:       no
#   Separate Channel Data:    no
#   External Channel Data:    yes
#   Transmission Function:    yes
#   Error Bar:                no
#   Operation Results:        yes
#   Time Zone Format:         UTC
#
# Group:                        L-serine pH 7 500 mM
#
# Region:                       VBM
# Spectrum ID:                  666
# Acquisition Date:             03/12/26 10:53:27 UTC
# Analysis Method:              XPS
# Analyzer:                     Phoibos
# Analyzer Lens:                LargeArea:3.5kV
# Analyzer Slit:                5:7x20\B:open
# Scan Mode:                    FixedAnalyzerTransmission
# Curves/Scan:                  1
# Values/Curve:                 251
# Dwell Time:                   0.1
# Excitation Energy:            660
# Kinetic Energy:               640
# Pass Energy:                  10
# Bias Voltage:                 220
# Detector Voltage:             1920
# Eff. Workfunction:            0
# Source:                       Monochromator
# Comment:                      

# Cycle: 0
#
# Number of Scans: 2

# Cycle: 0, Curve: 0
#
# Acquisition Date:             03/12/26 10:53:27 UTC
# ColumnLabels:                 energy counts/s transmission
#
640  410.73317  7.5412854
640.1  334.37973  7.5411582
640.2  354.56719  7.541031
640.3  326.5994  7.5409038
640.4  326.19615  7.5407766
640.5  409.20949  7.5406494
640.6  360.13688  7.5405222
640.7  304.24241  7.540395
640.8  314.3933  7.5402679
640.9  326.05638  7.5401407
641  306.37133  7.5400136
641.1  282.18349  7.5398864
641.2  276.11678  7.5397593
641.3  345.7573  7.5396322
641.4  277.81034  7.5395051
641.5  242.2568  7.539378
641.6  248.13136  7.5392509
641.7  294.57107  7.5391238
641.8  236.1727  7.5389967
641.9  271.2733  7.5388696
642  225.54338  7.5387425
642.1  187.9766  7.5386154
642.2  235.97144  7.5384884
642.3  259.82597  7.5383613
642.4  188.17323  7.5382343
642.5  202.337  7.5381072
642.6  206.84581  7.5379802
642.7  189.34166  7.5378532
642.8  182.78887  7.5377261
642.9  208.18619  7.5375991
643  266.21395  7.5374721
643.1  210.12563  7.5373451
643.2  217.66712  7.5372181
643.3  142.84285  7.5370911
643.4  181.43038  7.5369641
643.5  239.59248  7.5368372
643.6  194.58161  7.5367102
643.7  241.56909  7.5365832
643.8  273.56666  7.5364563
643.9  240.37992  7.5363293
644  255.64787  7.5362024
644.1  222.55325  7.5360755
644.2  239.7658  7.5359485
644.3  215.00041  7.5358216
644.4  289.77271  7.5356947
644.5  313.03079  7.5355678
644.6  319.5648  7.5354409
644.7  351.60006  7.535314
644.8  300.1537  7.5351871
644.9  416.0205  7.5350603
645  438.8222  7.5349334
645.1  483.69512  7.5348065
645.2  551.96046  7.5346797
645.3  564.25101  7.5345528
645.4  687.50951  7.534426
645.5  707.31299  7.5342991
645.6  689.0021  7.5341723
645.7  828.65754  7.5340455
645.8  847.6151  7.5339187
645.9  920.80056  7.5337919
646  958.02744  7.5336651
646.1  1033.6202  7.5335383
646.2  1044.0957  7.5334115
646.3  1063.7596  7.5332847
646.4  1159.877  7.5331579
646.5  1213.1237  7.5330312
646.6  1187.9813  7.5329044
646.7  1193.227  7.5327777
646.8  1232.2214  7.5326509
646.9  1198.4478  7.5325242
647  1146.1339  7.5323974
647.1  1374.1348  7.5322707
647.2  1309.4771  7.532144
647.3  1223.0719  7.5320173
647.4  1196.4508  7.5318906
647.5  1196.6598  7.5317639
647.6  1339.2264  7.5316372
647.7  1185.2421  7.5315105
647.8  1060.453  7.5313838
647.9  1055.4272  7.5312572
648  993.02758  7.5311305
648.1  1023.3951  7.5310039
648.2  857.59991  7.5308772
648.3  855.10515  7.5307506
648.4  839.65406  7.5306239
648.5  831.09339  7.5304973
648.6  916.67932  7.5303707
648.7  1030.4501  7.5302441
648.8  1072.6836  7.5301175
648.9  1208.1509  7.5299909
649  1484.4601  7.5298643
649.1  1654.2084  7.5297377
649.2  1912.3694  7.5296111
649.3  1981.5765  7.5294845
649.4  2205.992  7.529358
649.5  2218.6616  7.5292314
649.6  2319.2747  7.5291049
649.7  2489.262  7.5289783
649.8  2430.5326  7.5288518
649.9  2340.4789  7.5287253
650  2322.5443  7.5285987
650.1  2376.6936  7.5284722
650.2  2378.0579  7.5283457
650.3  2261.7863  7.5282192
650.4  2260.4001  7.5280927
650.5  2269.083  7.5279662
650.6  2274.1752  7.5278397
650.7  2305.82  7.5277133
650.8  2331.9566  7.5275868
650.9  2206.4923  7.5274603
651  2394.6133  7.5273339
651.1  2421.2  7.5272074
651.2  2524.7035  7.527081
651.3  2459.1564  7.5269546
651.4  2538.0872  7.5268281
651.5  2662.5862  7.5267017
651.6  2889.7582  7.5265753
651.7  2760.2876  7.5264489
651.8  2515.4114  7.5263225
651.9  2127.0275  7.5261961
652  1891.0801  7.5260697
652.1  1821.7427  7.5259433
652.2  1856.0957  7.525817
652.3  1994.0291  7.5256906
652.4  2076.1019  7.5255642
652.5  2238.781  7.5254379
652.6  2331.4596  7.5253116
652.7  2420.2563  7.5251852
652.8  2510.8049  7.5250589
652.9  2558.4078  7.5249326
653  2727.1947  7.5248063
653.1  2594.3314  7.5246799
653.2  2699.2569  7.5245536
653.3  2613.4772  7.5244273
653.4  2536.8871  7.5243011
653.5  2325.3657  7.5241748
653.6  2173.3122  7.5240485
653.7  1841.2153  7.5239222
653.8  1556.4598  7.523796
653.9  1255.4194  7.5236697
654  1132.4934  7.5235435
654.1  782.89764  7.5234172
654.2  709.08631  7.523291
654.3  539.84747  7.5231648
654.4  454.90154  7.5230386
654.5  304.61768  7.5229124
654.6  199.50897  7.5227861
654.7  184.60823  7.5226599
654.8  168.53212  7.5225338
654.9  170.242  7.5224076
655  128.00202  7.5222814
655.1  117.0827  7.5221552
655.2  108.78927  7.5220291
655.3  80.74929  7.5219029
655.4  86.799005  7.5217768
655.5  44.37827  7.5216506
655.6  44.613949  7.5215245
655.7  63.761556  7.5213984
655.8  39.568944  7.5212722
655.9  47.915596  7.5211461
656  26.365354  7.52102
656.1  27.182531  7.5208939
656.2  8.34005  7.5207678
656.3  5.54905  7.5206417
656.4  12.264  7.5205156
656.5  21.06855  7.5203896
656.6  14.02055  7.5202635
656.7  5.2085  7.5201375
656.8  15.99215  7.5200114
656.9  18.280565  7.5198854
657  12.319035  7.5197593
657.1  13.191525  7.5196333
657.2  15.183365  7.5195073
657.3  9.70171  7.5193812
657.4  7.05105  7.5192552
657.5  11.7067  7.5191292
657.6  11.5784  7.5190032
657.7  5.3829  7.5188772
657.8  12.57045  7.5187513
657.9  3.9315  7.5186253
658  4.5703  7.5184993
658.1  0.4297  7.5183734
658.2  0  7.5182474
658.3  0  7.5181214
658.4  3.034265  7.5179955
658.5  1.965735  7.5178696
658.6  6.96645  7.5177436
658.7  8.2383  7.5176177
658.8  17.6974  7.5174918
658.9  2.183169  7.5173659
659  10.085316  7.51724
659.1  4.914684  7.5171141
659.2  12.897731  7.5169882
659.3  11.502675  7.5168623
659.4  10.344325  7.5167365
659.5  4.99555  7.5166106
659.6  8.460164  7.5164848
659.7  15.472006  7.5163589
659.8  14.10208  7.5162331
659.9  3.250995  7.5161072
660  7.821305  7.5159814
660.1  1.06785  7.5158556
660.2  3.889865  7.5157298
660.3  9.944285  7.5156039
660.4  11.16585  7.5154781
660.5  12.8561  7.5153523
660.6  12.87185  7.5152266
660.7  4.27205  7.5151008
660.8  0  7.514975
660.9  0.4682  7.5148492
661  7.349339  7.5147235
661.1  12.263311  7.5145977
661.2  6.28525  7.514472
661.3  3.6339  7.5143462
661.4  1.6214  7.5142205
661.5  8.7622  7.5140948
661.6  10.21225  7.5139691
661.7  7.39612  7.5138433
661.8  14.906424  7.5137176
661.9  20.680456  7.5135919
662  6.42115  7.5134662
662.1  2.264  7.5133406
662.2  3.846845  7.5132149
662.3  7.693705  7.5130892
662.4  1.280769  7.5129635
662.5  10.212931  7.5128379
662.6  6.4552  7.5127122
662.7  7.5193  7.5125866
662.8  12.08515  7.512461
662.9  24.7915  7.5123353
663  13.71475  7.5122097
663.1  5.3488  7.5120841
663.2  4.872369  7.5119585
663.3  15.119381  7.5118329
663.4  15.902345  7.5117073
663.5  13.892955  7.5115817
663.6  8.8386  7.5114561
663.7  9.96145  7.5113305
663.8  1.19995  7.511205
663.9  4.31505  7.5110794
664  9.9577  7.5109539
664.1  0.812569  7.5108283
664.2  4.914681  7.5107028
664.3  0  7.5105773
664.4  0  7.5104517
664.5  6.19615  7.5103262
664.6  3.80385  7.5102007
664.7  0.97875  7.5100752
664.8  10.3406  7.5099497
664.9  4.99995  7.5098242
665  8.89365  7.5096987

