# Created by:        SpecsLab Prodigy, Version 4.84.1-r101483 
#
# XY-Serializer Export Settings:
#   Comment Prefix:           #
#   Output Meta Data:         yes
#   Energy Axis:              Kinetic Energy
#   Count Rate:               Counts per Second
#   Separate Scan Data:       no
#   Separate Channel Data:    no
#   External Channel Data:    yes
#   Transmission Function:    yes
#   Error Bar:                no
#   Operation Results:        yes
#   Time Zone Format:         UTC
#
# Group:                        L-serine pH 7 500 mM
#
# Region:                       VBM
# Spectrum ID:                  696
# Acquisition Date:             03/12/26 16:10:24 UTC
# Analysis Method:              XPS
# Analyzer:                     Phoibos
# Analyzer Lens:                LargeArea:3.5kV
# Analyzer Slit:                5:7x20\B:open
# Scan Mode:                    FixedAnalyzerTransmission
# Curves/Scan:                  1
# Values/Curve:                 251
# Dwell Time:                   0.1
# Excitation Energy:            370
# Kinetic Energy:               350
# Pass Energy:                  10
# Bias Voltage:                 220
# Detector Voltage:             1920
# Eff. Workfunction:            0
# Source:                       Monochromator
# Comment:                      

# Cycle: 0
#
# Number of Scans: 2

# Cycle: 0, Curve: 0
#
# Acquisition Date:             03/12/26 16:10:24 UTC
# ColumnLabels:                 energy counts/s transmission
#
350  11944.029  7.9343474
350.1  11646.071  7.9342083
350.2  11508.17  7.9340691
350.3  11069.109  7.9339299
350.4  10825.308  7.9337908
350.5  10962.561  7.9336516
350.6  10962.487  7.9335124
350.7  10506.179  7.9333732
350.8  10234.056  7.933234
350.9  10016.896  7.9330948
351  9829.1538  7.9329556
351.1  9459.5502  7.9328164
351.2  9532.1593  7.9326772
351.3  9222.2521  7.932538
351.4  9033.4436  7.9323988
351.5  8869.5826  7.9322595
351.6  8658.8794  7.9321203
351.7  8620.6071  7.9319811
351.8  8235.7594  7.9318418
351.9  7968.3695  7.9317026
352  7760.1712  7.9315633
352.1  7706.8505  7.9314241
352.2  7610.2621  7.9312848
352.3  7434.0979  7.9311456
352.4  7473.1263  7.9310063
352.5  7414.1209  7.930867
352.6  7426.0924  7.9307278
352.7  7377.3417  7.9305885
352.8  7428.3539  7.9304492
352.9  7229.9019  7.9303099
353  7628.0192  7.9301706
353.1  7661.268  7.9300313
353.2  7976.8141  7.929892
353.3  8293.2652  7.9297527
353.4  8990.9419  7.9296134
353.5  9495.1152  7.9294741
353.6  9770.3665  7.9293348
353.7  10382.27  7.9291955
353.8  11192.55  7.9290562
353.9  12125.8  7.9289168
354  13056.476  7.9287775
354.1  14241.168  7.9286382
354.2  15485.904  7.9284988
354.3  16585.602  7.9283595
354.4  18040.462  7.9282201
354.5  19933.332  7.9280808
354.6  22198.885  7.9279414
354.7  24240.854  7.9278021
354.8  26551.696  7.9276627
354.9  28697.393  7.9275233
355  30802.525  7.927384
355.1  33202.435  7.9272446
355.2  36062.899  7.9271052
355.3  37901.474  7.9269658
355.4  40697.494  7.9268265
355.5  43640.807  7.9266871
355.6  44634.896  7.9265477
355.7  46625.803  7.9264083
355.8  49073.665  7.9262689
355.9  49721.166  7.9261295
356  50492.845  7.9259901
356.1  50934.331  7.9258506
356.2  51687.834  7.9257112
356.3  52542.41  7.9255718
356.4  53159.342  7.9254324
356.5  51643.486  7.9252929
356.6  52033.762  7.9251535
356.7  52319.794  7.9250141
356.8  51966.507  7.9248746
356.9  50530.38  7.9247352
357  49596.993  7.9245957
357.1  48703.661  7.9244563
357.2  47600.208  7.9243168
357.3  45394.025  7.9241774
357.4  43724.384  7.9240379
357.5  41799.992  7.9238985
357.6  39568.943  7.923759
357.7  37369.146  7.9236195
357.8  35698.777  7.92348
357.9  33668.896  7.9233406
358  32367.71  7.9232011
358.1  31664.148  7.9230616
358.2  32058.677  7.9229221
358.3  33577.82  7.9227826
358.4  37667.503  7.9226431
358.5  42257.798  7.9225036
358.6  48282.52  7.9223641
358.7  55856.463  7.9222246
358.8  63793.432  7.9220851
358.9  72156.881  7.9219456
359  78754.27  7.9218061
359.1  86146.539  7.9216665
359.2  92001.212  7.921527
359.3  95607.517  7.9213875
359.4  97740.492  7.921248
359.5  96833.073  7.9211084
359.6  96321.438  7.9209689
359.7  92352.586  7.9208293
359.8  88798.458  7.9206898
359.9  85720.418  7.9205503
360  82012.431  7.9204107
360.1  78265.043  7.9202712
360.2  77633.687  7.9201316
360.3  76175.875  7.919992
360.4  77028.09  7.9198525
360.5  76815.941  7.9197129
360.6  77599.234  7.9195733
360.7  79035.077  7.9194338
360.8  80847.501  7.9192942
360.9  86199.76  7.9191546
361  91193.727  7.919015
361.1  96257.923  7.9188754
361.2  105960.35  7.9187359
361.3  122168.48  7.9185963
361.4  132971.42  7.9184567
361.5  129926.04  7.9183171
361.6  111446.64  7.9181775
361.7  89501.18  7.9180379
361.8  73280.484  7.9178983
361.9  71048.731  7.9177586
362  73375.913  7.917619
362.1  77949.607  7.9174794
362.2  83372.42  7.9173398
362.3  90020.686  7.9172002
362.4  95386.719  7.9170606
362.5  100460.64  7.9169209
362.6  105761.6  7.9167813
362.7  107666.32  7.9166417
362.8  107035.45  7.916502
362.9  106852.33  7.9163624
363  104667.58  7.9162227
363.1  100980.84  7.9160831
363.2  93580.683  7.9159434
363.3  85001.719  7.9158038
363.4  75727.217  7.9156641
363.5  65635.57  7.9155245
363.6  54683.347  7.9153848
363.7  45106.995  7.9152452
363.8  36130.461  7.9151055
363.9  28517.243  7.9149658
364  21828.622  7.9148262
364.1  16437.307  7.9146865
364.2  12629.228  7.9145468
364.3  9797.94  7.9144071
364.4  7919.0519  7.9142675
364.5  6571.9935  7.9141278
364.6  5675.7447  7.9139881
364.7  4798.1067  7.9138484
364.8  4362.1401  7.9137087
364.9  3830.0832  7.913569
365  3085.5053  7.9134293
365.1  2498.5046  7.9132896
365.2  2260.9587  7.9131499
365.3  1899.1049  7.9130102
365.4  1529.5744  7.9128705
365.5  1272.5593  7.9127308
365.6  1087.3795  7.9125911
365.7  824.3291  7.9124514
365.8  773.89641  7.9123116
365.9  784.40837  7.9121719
366  714.82677  7.9120322
366.1  649.95288  7.9118925
366.2  624.08478  7.9117527
366.3  594.16788  7.911613
366.4  612.66347  7.9114733
366.5  489.9923  7.9113335
366.6  437.13281  7.9111938
366.7  432.27061  7.9110541
366.8  481.96709  7.9109143
366.9  353.15332  7.9107746
367  424.5595  7.9106348
367.1  423.99963  7.9104951
367.2  454.61668  7.9103553
367.3  424.17764  7.9102156
367.4  419.89751  7.9100758
367.5  361.11708  7.9099361
367.6  346.89365  7.9097963
367.7  339.40178  7.9096565
367.8  352.59585  7.9095168
367.9  398.78301  7.909377
368  337.97241  7.9092372
368.1  300.37163  7.9090975
368.2  384.5195  7.9089577
368.3  410.44324  7.9088179
368.4  327.07499  7.9086781
368.5  298.50186  7.9085383
368.6  330.16761  7.9083986
368.7  360.34451  7.9082588
368.8  325.5765  7.908119
368.9  317.56596  7.9079792
369  294.01773  7.9078394
369.1  283.96164  7.9076996
369.2  298.21104  7.9075598
369.3  247.18727  7.90742
369.4  299.40503  7.9072802
369.5  293.6792  7.9071404
369.6  290.68924  7.9070006
369.7  272.96618  7.9068608
369.8  274.03037  7.906721
369.9  304.63378  7.9065812
370  292.65978  7.9064414
370.1  267.63858  7.9063015
370.2  286.85172  7.9061617
370.3  300.97227  7.9060219
370.4  348.64071  7.9058821
370.5  315.12405  7.9057423
370.6  311.02629  7.9056024
370.7  318.32259  7.9054626
370.8  284.21093  7.9053228
370.9  298.0247  7.905183
371  292.41454  7.9050431
371.1  264.69383  7.9049033
371.2  312.79943  7.9047635
371.3  266.36318  7.9046236
371.4  295.18567  7.9044838
371.5  250.15319  7.9043439
371.6  256.73454  7.9042041
371.7  296.40614  7.9040642
371.8  322.56551  7.9039244
371.9  286.34958  7.9037845
372  318.07526  7.9036447
372.1  383.17196  7.9035048
372.2  307.97047  7.903365
372.3  345.72863  7.9032251
372.4  295.16052  7.9030853
372.5  281.21812  7.9029454
372.6  259.84682  7.9028055
372.7  303.17011  7.9026657
372.8  280.39835  7.9025258
372.9  259.84864  7.9023859
373  303.45665  7.9022461
373.1  298.07177  7.9021062
373.2  289.98896  7.9019663
373.3  268.55105  7.9018265
373.4  311.65508  7.9016866
373.5  297.38243  7.9015467
373.6  325.63858  7.9014068
373.7  319.6285  7.901267
373.8  304.23419  7.9011271
373.9  277.12245  7.9009872
374  299.64203  7.9008473
374.1  310.86041  7.9007074
374.2  307.33406  7.9005675
374.3  280.13913  7.9004276
374.4  334.46405  7.9002877
374.5  290.58773  7.9001479
374.6  345.23942  7.900008
374.7  304.34904  7.8998681
374.8  224.95694  7.8997282
374.9  225.93396  7.8995883
375  290.10038  7.8994484

