# Created by:        SpecsLab Prodigy, Version 4.84.1-r101483 
#
# XY-Serializer Export Settings:
#   Comment Prefix:           #
#   Output Meta Data:         yes
#   Energy Axis:              Kinetic Energy
#   Count Rate:               Counts per Second
#   Separate Scan Data:       no
#   Separate Channel Data:    no
#   External Channel Data:    yes
#   Transmission Function:    yes
#   Error Bar:                no
#   Operation Results:        yes
#   Time Zone Format:         UTC
#
# Group:                        L-serine pH 7 500 mM
#
# Region:                       VBM
# Spectrum ID:                  630
# Acquisition Date:             03/12/26 06:49:25 UTC
# Analysis Method:              XPS
# Analyzer:                     Phoibos
# Analyzer Lens:                LargeArea:3.5kV
# Analyzer Slit:                5:7x20\B:open
# Scan Mode:                    FixedAnalyzerTransmission
# Curves/Scan:                  1
# Values/Curve:                 251
# Dwell Time:                   0.1
# Excitation Energy:            630
# Kinetic Energy:               610
# Pass Energy:                  10
# Bias Voltage:                 220
# Detector Voltage:             1920
# Eff. Workfunction:            0
# Source:                       Monochromator
# Comment:                      

# Cycle: 0
#
# Number of Scans: 2

# Cycle: 0, Curve: 0
#
# Acquisition Date:             03/12/26 06:49:25 UTC
# ColumnLabels:                 energy counts/s transmission
#
610  370.30716  7.5797598
610.1  372.31876  7.5796305
610.2  425.05633  7.5795012
610.3  372.4036  7.579372
610.4  407.8606  7.5792427
610.5  414.41599  7.5791134
610.6  336.11048  7.5789842
610.7  320.55807  7.578855
610.8  347.77717  7.5787257
610.9  291.2008  7.5785965
611  281.37358  7.5784673
611.1  310.01881  7.5783381
611.2  256.97462  7.5782089
611.3  298.53602  7.5780797
611.4  274.91623  7.5779505
611.5  293.51445  7.5778213
611.6  267.83311  7.5776922
611.7  226.3446  7.577563
611.8  276.7721  7.5774338
611.9  239.34493  7.5773047
612  242.85286  7.5771755
612.1  221.76285  7.5770464
612.2  211.78585  7.5769173
612.3  238.5879  7.5767881
612.4  247.34874  7.576659
612.5  254.68291  7.5765299
612.6  263.50483  7.5764008
612.7  241.36965  7.5762717
612.8  218.47922  7.5761426
612.9  210.24783  7.5760135
613  173.70877  7.5758845
613.1  208.89581  7.5757554
613.2  255.868  7.5756263
613.3  193.57713  7.5754973
613.4  169.89831  7.5753682
613.5  189.60564  7.5752392
613.6  209.9284  7.5751101
613.7  217.66824  7.5749811
613.8  247.70666  7.5748521
613.9  246.47106  7.5747231
614  232.86115  7.5745941
614.1  314.00049  7.5744651
614.2  310.89602  7.5743361
614.3  315.70496  7.5742071
614.4  364.16974  7.5740781
614.5  337.78048  7.5739491
614.6  394.87792  7.5738201
614.7  427.83246  7.5736912
614.8  382.09539  7.5735622
614.9  467.11793  7.5734333
615  472.71098  7.5733043
615.1  691.703  7.5731754
615.2  677.88075  7.5730465
615.3  682.26615  7.5729176
615.4  810.61642  7.5727887
615.5  862.40833  7.5726597
615.6  879.44158  7.5725308
615.7  1002.8634  7.572402
615.8  1126.5364  7.5722731
615.9  1021.8635  7.5721442
616  1008.8675  7.5720153
616.1  1199.5049  7.5718865
616.2  1218.4907  7.5717576
616.3  1136.9104  7.5716287
616.4  1250.5581  7.5714999
616.5  1140.2569  7.5713711
616.6  1199.1528  7.5712422
616.7  1230.733  7.5711134
616.8  1366.9018  7.5709846
616.9  1356.1731  7.5708558
617  1373.5792  7.570727
617.1  1410.8647  7.5705982
617.2  1338.5923  7.5704694
617.3  1390.896  7.5703406
617.4  1337.6449  7.5702118
617.5  1377.9278  7.5700831
617.6  1247.3212  7.5699543
617.7  1183.1519  7.5698256
617.8  1107.893  7.5696968
617.9  1132.4444  7.5695681
618  1165.6156  7.5694393
618.1  1019.4889  7.5693106
618.2  894.44284  7.5691819
618.3  911.52317  7.5690532
618.4  979.19299  7.5689245
618.5  996.60776  7.5687958
618.6  1047.3757  7.5686671
618.7  1146.3898  7.5685384
618.8  1226.8081  7.5684097
618.9  1562.0033  7.568281
619  1781.359  7.5681524
619.1  1806.3777  7.5680237
619.2  2121.8228  7.5678951
619.3  2465.0534  7.5677664
619.4  2434.8895  7.5676378
619.5  2571.7178  7.5675091
619.6  2921.4568  7.5673805
619.7  2845.2797  7.5672519
619.8  2744.5849  7.5671233
619.9  2715.0067  7.5669947
620  2809.8876  7.5668661
620.1  2632.2755  7.5667375
620.2  2671.9576  7.5666089
620.3  2546.5979  7.5664803
620.4  2587.259  7.5663518
620.5  2377.898  7.5662232
620.6  2274.6132  7.5660947
620.7  2557.3623  7.5659661
620.8  2713.6507  7.5658376
620.9  2706.9271  7.565709
621  2743.0453  7.5655805
621.1  2714.4872  7.565452
621.2  2631.2462  7.5653235
621.3  2805.7523  7.565195
621.4  2908.773  7.5650665
621.5  3209.7967  7.564938
621.6  3221.7761  7.5648095
621.7  3297.584  7.564681
621.8  2885.0132  7.5645525
621.9  2404.0818  7.5644241
622  2057.6067  7.5642956
622.1  1933.7924  7.5641671
622.2  1932.7575  7.5640387
622.3  2099.741  7.5639103
622.4  2082.7682  7.5637818
622.5  2191.2114  7.5636534
622.6  2430.4497  7.563525
622.7  2681.7555  7.5633966
622.8  2803.7498  7.5632682
622.9  2912.6516  7.5631398
623  3114.0093  7.5630114
623.1  3047.8003  7.562883
623.2  2873.2456  7.5627546
623.3  2795.5283  7.5626263
623.4  2844.6728  7.5624979
623.5  2538.8921  7.5623695
623.6  2370.2951  7.5622412
623.7  2272.6363  7.5621128
623.8  1813.1364  7.5619845
623.9  1525.7405  7.5618562
624  1116.6947  7.5617279
624.1  993.67043  7.5615996
624.2  856.48974  7.5614712
624.3  643.16294  7.5613429
624.4  512.71089  7.5612146
624.5  355.3888  7.5610864
624.6  349.79146  7.5609581
624.7  257.23498  7.5608298
624.8  189.64699  7.5607015
624.9  150.66299  7.5605733
625  95.556495  7.560445
625.1  90.301385  7.5603168
625.2  101.77853  7.5601885
625.3  74.038544  7.5600603
625.4  72.739661  7.5599321
625.5  33.33125  7.5598039
625.6  47.69805  7.5596757
625.7  49.732768  7.5595475
625.8  44.457777  7.5594193
625.9  16.200605  7.5592911
626  32.2121  7.5591629
626.1  17.2217  7.5590347
626.2  32.4852  7.5589065
626.3  24.655655  7.5587784
626.4  34.493195  7.5586502
626.5  14.617165  7.5585221
626.6  10.386635  7.5583939
626.7  6.87665  7.5582658
626.8  12.004295  7.5581377
626.9  9.237955  7.5580095
627  12.71955  7.5578814
627.1  17.9193  7.5577533
627.2  16.8381  7.5576252
627.3  16.362395  7.5574971
627.4  16.160655  7.557369
627.5  7.5578  7.557241
627.6  10.472  7.5571129
627.7  7.51925  7.5569848
627.8  17.600145  7.5568568
627.9  14.710655  7.5567287
628  2.14015  7.5566007
628.1  13.830364  7.5564726
628.2  26.889356  7.5563446
628.3  13.54858  7.5562166
628.4  5.81255  7.5560886
628.5  17.694395  7.5559605
628.6  19.352905  7.5558325
628.7  13.8083  7.5557045
628.8  7.09335  7.5555766
628.9  1.9702  7.5554486
629  6.7067  7.5553206
629.1  9.45155  7.5551926
629.2  8.84175  7.5550647
629.3  4.0175  7.5549367
629.4  7.98675  7.5548088
629.5  6.030015  7.5546808
629.6  1.965735  7.5545529
629.7  0  7.554425
629.8  4.18295  7.554297
629.9  0.81705  7.5541691
630  0  7.5540412
630.1  5.940895  7.5539133
630.2  6.918974  7.5537854
630.3  11.072281  7.5536575
630.4  7.9022  7.5535296
630.5  3.16565  7.5534018
630.6  7.05175  7.5532739
630.7  12.008045  7.5531461
630.8  0.940205  7.5530182
630.9  0  7.5528904
631  7.736695  7.5527625
631.1  7.17868  7.5526347
631.2  11.15317  7.5525069
631.3  3.931455  7.552379
631.4  0  7.5522512
631.5  0  7.5521234
631.6  0.2085  7.5519956
631.7  8.72365  7.5518678
631.8  4.99555  7.5517401
631.9  7.3961  7.5516123
632  8.1574  7.5514845
632.1  26.664369  7.5513567
632.2  13.854431  7.551229
632.3  0  7.5511012
632.4  4.8256  7.5509735
632.5  5  7.5508458
632.6  4.44715  7.550718
632.7  11.961964  7.5505903
632.8  14.748501  7.5504626
632.9  7.897735  7.5503349
633  6.11905  7.5502072
633.1  0  7.5500795
633.2  4.69795  7.5499518
633.3  1.242969  7.5498241
633.4  20.983201  7.5496965
633.5  3.07588  7.5495688
633.6  12.392295  7.5494411
633.7  9.101455  7.5493135
633.8  5.72795  7.5491858
633.9  15.33615  7.5490582
634  10.30645  7.5489306
634.1  17.63795  7.548803
634.2  6.2512  7.5486753
634.3  19.438925  7.5485477
634.4  14.574075  7.5484201
634.5  9.23355  7.5482925
634.6  1.75345  7.5481649
634.7  3.24655  7.5480374
634.8  7.1749  7.5479098
634.9  19.8256  7.5477822
635  7.9995  7.5476546

