# Created by:        SpecsLab Prodigy, Version 4.84.1-r101483 
#
# XY-Serializer Export Settings:
#   Comment Prefix:           #
#   Output Meta Data:         yes
#   Energy Axis:              Kinetic Energy
#   Count Rate:               Counts per Second
#   Separate Scan Data:       no
#   Separate Channel Data:    no
#   External Channel Data:    yes
#   Transmission Function:    yes
#   Error Bar:                no
#   Operation Results:        yes
#   Time Zone Format:         UTC
#
# Group:                        L-serine pH 7 500 mM
#
# Region:                       VBM
# Spectrum ID:                  664
# Acquisition Date:             03/12/26 10:37:01 UTC
# Analysis Method:              XPS
# Analyzer:                     Phoibos
# Analyzer Lens:                LargeArea:3.5kV
# Analyzer Slit:                5:7x20\B:open
# Scan Mode:                    FixedAnalyzerTransmission
# Curves/Scan:                  1
# Values/Curve:                 251
# Dwell Time:                   0.1
# Excitation Energy:            540
# Kinetic Energy:               520
# Pass Energy:                  10
# Bias Voltage:                 220
# Detector Voltage:             1920
# Eff. Workfunction:            0
# Source:                       Monochromator
# Comment:                      

# Cycle: 0
#
# Number of Scans: 2

# Cycle: 0, Curve: 0
#
# Acquisition Date:             03/12/26 10:37:01 UTC
# ColumnLabels:                 energy counts/s transmission
#
520  16581.607  7.6988061
520.1  15226.267  7.698671
520.2  14241.781  7.6985359
520.3  13369.921  7.6984008
520.4  12324.488  7.6982656
520.5  11233.366  7.6981305
520.6  10320.099  7.6979954
520.7  10024.958  7.6978603
520.8  9251.6579  7.6977252
520.9  9030.5397  7.6975901
521  8527.6156  7.6974551
521.1  8138.2399  7.69732
521.2  7501.54  7.6971849
521.3  6969.4676  7.6970499
521.4  7070.9985  7.6969148
521.5  6480.0227  7.6967798
521.6  6195.1214  7.6966447
521.7  6078.3977  7.6965097
521.8  6159.776  7.6963746
521.9  5971.4411  7.6962396
522  5759.226  7.6961046
522.1  5361.237  7.6959696
522.2  5007.4935  7.6958346
522.3  4939.2388  7.6956996
522.4  5006.4258  7.6955646
522.5  4857.4762  7.6954296
522.6  4749.9024  7.6952946
522.7  4479.4566  7.6951596
522.8  4191.1976  7.6950246
522.9  3946.3774  7.6948897
523  3845.3957  7.6947547
523.1  3760.6346  7.6946198
523.2  3827.1131  7.6944848
523.3  3686.6711  7.6943499
523.4  3646.9829  7.6942149
523.5  3431.1592  7.69408
523.6  3065.9249  7.6939451
523.7  3176.5032  7.6938102
523.8  3312.3873  7.6936752
523.9  3069.698  7.6935403
524  2899.3673  7.6934054
524.1  2766.005  7.6932705
524.2  2662.7391  7.6931357
524.3  2610.1508  7.6930008
524.4  2640.3078  7.6928659
524.5  2511.1052  7.692731
524.6  2410.7434  7.6925962
524.7  2481.4815  7.6924613
524.8  2466.9919  7.6923264
524.9  2315.4315  7.6921916
525  2190.8376  7.6920568
525.1  2208.2016  7.6919219
525.2  2059.126  7.6917871
525.3  1978.4829  7.6916523
525.4  2116.2535  7.6915175
525.5  2047.3291  7.6913827
525.6  1998.4303  7.6912478
525.7  1929.0846  7.6911131
525.8  1855.2234  7.6909783
525.9  1688.98  7.6908435
526  1748.8759  7.6907087
526.1  1704.3572  7.6905739
526.2  1621.2685  7.6904392
526.3  1683.8679  7.6903044
526.4  1603.4134  7.6901696
526.5  1624.6901  7.6900349
526.6  1560.5487  7.6899001
526.7  1460.8131  7.6897654
526.8  1415.3478  7.6896307
526.9  1477.2812  7.6894959
527  1404.5569  7.6893612
527.1  1414.8696  7.6892265
527.2  1480.6291  7.6890918
527.3  1164.8492  7.6889571
527.4  1204.07  7.6888224
527.5  1409.2797  7.6886877
527.6  1349.9114  7.688553
527.7  1221.5281  7.6884184
527.8  1309.5772  7.6882837
527.9  1337.4749  7.688149
528  1497.4768  7.6880144
528.1  1477.0532  7.6878797
528.2  1258.9013  7.6877451
528.3  1382.9076  7.6876104
528.4  1452.4138  7.6874758
528.5  1585.9261  7.6873412
528.6  1670.07  7.6872066
528.7  1806.4432  7.6870719
528.8  2004.0572  7.6869373
528.9  2083.0946  7.6868027
529  2310.4008  7.6866681
529.1  2358.633  7.6865335
529.2  2578.5028  7.686399
529.3  2705.2672  7.6862644
529.4  2925.17  7.6861298
529.5  3244.472  7.6859952
529.6  3271.0894  7.6858607
529.7  3613.2015  7.6857261
529.8  3862.4161  7.6855916
529.9  4325.7082  7.685457
530  4491.5498  7.6853225
530.1  5093.99  7.685188
530.2  5394.7741  7.6850534
530.3  5785.2093  7.6849189
530.4  5984.6088  7.6847844
530.5  6296.3181  7.6846499
530.6  6485.2992  7.6845154
530.7  6301.7818  7.6843809
530.8  6410.2133  7.6842464
530.9  6853.5573  7.6841119
531  7225.3127  7.6839775
531.1  7246.3145  7.683843
531.2  7284.9003  7.6837085
531.3  7836.3187  7.6835741
531.4  7883.6988  7.6834396
531.5  7563.4277  7.6833052
531.6  7896.5536  7.6831708
531.7  7371.9328  7.6830363
531.8  7458.4653  7.6829019
531.9  7478.821  7.6827675
532  7431.3874  7.6826331
532.1  6982.2695  7.6824987
532.2  7058.5108  7.6823643
532.3  6797.5191  7.6822299
532.4  6479.1513  7.6820955
532.5  6505.1029  7.6819611
532.6  6388.3163  7.6818267
532.7  6293.2263  7.6816923
532.8  6141.0135  7.681558
532.9  6032.2582  7.6814236
533  6164.0946  7.6812893
533.1  6388.0388  7.6811549
533.2  6613.7153  7.6810206
533.3  7184.9451  7.6808863
533.4  8092.6874  7.6807519
533.5  8889.7524  7.6806176
533.6  9797.1078  7.6804833
533.7  11003.304  7.680349
533.8  12194.61  7.6802147
533.9  12769.699  7.6800804
534  13588.654  7.6799461
534.1  14142.065  7.6798118
534.2  14513.492  7.6796775
534.3  15202.475  7.6795433
534.4  14891.137  7.679409
534.5  14952.066  7.6792747
534.6  14783.99  7.6791405
534.7  14535.543  7.6790062
534.8  14249.148  7.678872
534.9  14131.945  7.6787378
535  14162.232  7.6786035
535.1  13783.977  7.6784693
535.2  13716.164  7.6783351
535.3  13836.303  7.6782009
535.4  13776.221  7.6780667
535.5  13902.848  7.6779325
535.6  14619.698  7.6777983
535.7  14432.667  7.6776641
535.8  15403.044  7.6775299
535.9  15974.348  7.6773958
536  17071.62  7.6772616
536.1  17230.677  7.6771274
536.2  17060.442  7.6769933
536.3  16935.736  7.6768591
536.4  15827.124  7.676725
536.5  14706.839  7.6765909
536.6  14080.458  7.6764567
536.7  13230.069  7.6763226
536.8  12543.996  7.6761885
536.9  12388.337  7.6760544
537  12253.183  7.6759203
537.1  12959.642  7.6757862
537.2  13445.563  7.6756521
537.3  14266.647  7.675518
537.4  14965.727  7.6753839
537.5  15822.336  7.6752499
537.6  15699.444  7.6751158
537.7  15879.959  7.6749817
537.8  15833.55  7.6748477
537.9  15262.935  7.6747136
538  14688.09  7.6745796
538.1  13753.96  7.6744456
538.2  13015.194  7.6743115
538.3  11355.335  7.6741775
538.4  10093.024  7.6740435
538.5  8616.3718  7.6739095
538.6  7489.1596  7.6737755
538.7  6115.2123  7.6736415
538.8  4813.3579  7.6735075
538.9  3874.4157  7.6733735
539  3247.9652  7.6732395
539.1  2566.9815  7.6731056
539.2  2006.7297  7.6729716
539.3  1707.7622  7.6728376
539.4  1251.7956  7.6727037
539.5  1165.0569  7.6725697
539.6  983.32901  7.6724358
539.7  895.52861  7.6723019
539.8  689.68247  7.6721679
539.9  587.39794  7.672034
540  499.71332  7.6719001
540.1  461.38733  7.6717662
540.2  382.91103  7.6716323
540.3  266.44239  7.6714984
540.4  173.90024  7.6713645
540.5  168.56366  7.6712306
540.6  128.69617  7.6710967
540.7  125.50018  7.6709629
540.8  110.11651  7.670829
540.9  131.49886  7.6706951
541  117.87868  7.6705613
541.1  116.25923  7.6704274
541.2  51.973314  7.6702936
541.3  46.800265  7.6701598
541.4  55.204746  7.6700259
541.5  103.89942  7.6698921
541.6  71.965056  7.6697583
541.7  56.287595  7.6696245
541.8  37.767045  7.6694907
541.9  65.586805  7.6693569
542  61.5148  7.6692231
542.1  27.960969  7.6690893
542.2  29.009246  7.6689555
542.3  51.319989  7.6688218
542.4  50.309661  7.668688
542.5  43.15813  7.6685542
542.6  46.497474  7.6684205
542.7  27.263275  7.6682867
542.8  67.21046  7.668153
542.9  55.015061  7.6680193
543  26.451385  7.6678855
543.1  34.81665  7.6677518
543.2  39.24695  7.6676181
543.3  27.48135  7.6674844
543.4  24.39455  7.6673507
543.5  26.026225  7.667217
543.6  37.557775  7.6670833
543.7  35.344445  7.6669496
543.8  30.246305  7.666816
543.9  42.541605  7.6666823
544  36.654695  7.6665486
544.1  32.52685  7.666415
544.2  9.48949  7.6662813
544.3  28.83856  7.6661477
544.4  35.34964  7.666014
544.5  15.73095  7.6658804
544.6  11.961979  7.6657468
544.7  22.73669  7.6656132
544.8  24.616391  7.6654795
544.9  23.63455  7.6653459
545  27.110315  7.6652123

