# Created by:        SpecsLab Prodigy, Version 4.84.1-r101483 
#
# XY-Serializer Export Settings:
#   Comment Prefix:           #
#   Output Meta Data:         yes
#   Energy Axis:              Kinetic Energy
#   Count Rate:               Counts per Second
#   Separate Scan Data:       no
#   Separate Channel Data:    no
#   External Channel Data:    yes
#   Transmission Function:    yes
#   Error Bar:                no
#   Operation Results:        yes
#   Time Zone Format:         UTC
#
# Group:                        L-serine pH 7 500 mM
#
# Region:                       O 1s 80
# Spectrum ID:                  692
# Acquisition Date:             03/12/26 15:37:40 UTC
# Analysis Method:              XPS
# Analyzer:                     Phoibos
# Analyzer Lens:                LargeArea:3.5kV
# Analyzer Slit:                5:7x20\B:open
# Scan Mode:                    FixedAnalyzerTransmission
# Curves/Scan:                  1
# Values/Curve:                 151
# Dwell Time:                   0.1
# Excitation Energy:            610
# Kinetic Energy:               70
# Pass Energy:                  10
# Bias Voltage:                 220
# Detector Voltage:             1920
# Eff. Workfunction:            0
# Source:                       Monochromator
# Comment:                      

# Cycle: 0
#
# Number of Scans: 6

# Cycle: 0, Curve: 0
#
# Acquisition Date:             03/12/26 15:37:40 UTC
# ColumnLabels:                 energy counts/s transmission
#
70  29.232359  8.0648954
70.1  46.760623  8.0652883
70.2  39.026748  8.0656799
70.3  43.280802  8.0660702
70.4  35.852202  8.0664592
70.5  35.048693  8.066847
70.6  43.805532  8.0672334
70.7  39.638692  8.0676186
70.8  37.402741  8.0680024
70.9  42.391187  8.0683851
71  32.500992  8.0687664
71.1  37.996903  8.0691465
71.2  42.78397  8.0695253
71.3  55.77264  8.0699028
71.4  55.152895  8.0702791
71.5  47.578747  8.0706542
71.6  40.191362  8.071028
71.7  44.204541  8.0714006
71.8  42.551034  8.0717719
71.9  43.26302  8.072142
72  37.84378  8.0725109
72.1  37.442456  8.0728785
72.2  42.54915  8.0732449
72.3  44.194349  8.0736102
72.4  57.202646  8.0739742
72.5  56.11856  8.0743369
72.6  47.28014  8.0746985
72.7  53.80495  8.0750589
72.8  50.999648  8.0754181
72.9  51.005703  8.0757761
73  53.479535  8.0761329
73.1  60.049634  8.0764885
73.2  57.737283  8.0768429
73.3  57.407442  8.0771962
73.4  60.369037  8.0775483
73.5  60.246877  8.0778992
73.6  71.674796  8.0782489
73.7  56.25533  8.0785975
73.8  75.264508  8.0789449
73.9  82.027933  8.0792912
74  77.769285  8.0796363
74.1  89.470205  8.0799803
74.2  93.849501  8.0803231
74.3  109.74514  8.0806647
74.4  133.67013  8.0810053
74.5  148.35483  8.0813447
74.6  174.28152  8.0816829
74.7  244.43464  8.0820201
74.8  330.27148  8.0823561
74.9  433.75491  8.082691
75  644.95605  8.0830248
75.1  944.38327  8.0833575
75.2  1487.3878  8.083689
75.3  2230.867  8.0840195
75.4  2976.0117  8.0843488
75.5  3602.9762  8.0846771
75.6  3523.5715  8.0850042
75.7  2722.7415  8.0853303
75.8  1671.9886  8.0856552
75.9  750.6561  8.0859791
76  328.22005  8.0863019
76.1  201.77241  8.0866236
76.2  161.47427  8.0869443
76.3  151.53503  8.0872639
76.4  168.65806  8.0875824
76.5  168.00113  8.0878998
76.6  142.72698  8.0882162
76.7  122.13472  8.0885315
76.8  152.32092  8.0888457
76.9  169.26656  8.0891589
77  152.79294  8.0894711
77.1  158.13658  8.0897822
77.2  149.7992  8.0900923
77.3  155.92876  8.0904013
77.4  139.28462  8.0907093
77.5  140.9631  8.0910162
77.6  100.66669  8.0913221
77.7  124.09576  8.091627
77.8  103.57896  8.0919309
77.9  81.821934  8.0922337
78  85.117518  8.0925355
78.1  84.87763  8.0928364
78.2  75.581987  8.0931362
78.3  65.700877  8.0934349
78.4  64.741211  8.0937327
78.5  59.30722  8.0940295
78.6  54.601274  8.0943253
78.7  51.86919  8.0946201
78.8  46.229995  8.0949138
78.9  46.13648  8.0952066
79  53.968777  8.0954984
79.1  46.436873  8.0957893
79.2  52.869115  8.0960791
79.3  47.814318  8.0963679
79.4  45.443584  8.0966558
79.5  39.865455  8.0969427
79.6  34.457823  8.0972287
79.7  25.720234  8.0975136
79.8  40.189483  8.0977976
79.9  43.577673  8.0980807
80  46.752775  8.0983627
80.1  41.454197  8.0986439
80.2  43.114182  8.098924
80.3  31.209783  8.0992033
80.4  43.125577  8.0994815
80.5  38.347207  8.0997588
80.6  34.855083  8.1000352
80.7  23.826845  8.1003107
80.8  29.350624  8.1005852
80.9  43.551715  8.1008587
81  44.81995  8.1011314
81.1  39.30793  8.1014031
81.2  35.052341  8.1016739
81.3  38.09918  8.1019437
81.4  20.58528  8.1022127
81.5  37.582747  8.1024807
81.6  34.5977  8.1027478
81.7  41.539868  8.103014
81.8  47.63094  8.1032793
81.9  37.40846  8.1035436
82  33.872095  8.1038071
82.1  41.150877  8.1040697
82.2  46.965479  8.1043313
82.3  36.891027  8.1045921
82.4  42.429558  8.104852
82.5  40.051397  8.1051109
82.6  44.950291  8.105369
82.7  37.494763  8.1056262
82.8  38.801427  8.1058826
82.9  35.761585  8.106138
83  39.600198  8.1063926
83.1  37.412498  8.1066463
83.2  35.615341  8.1068991
83.3  36.032745  8.107151
83.4  27.93909  8.1074021
83.5  40.367761  8.1076523
83.6  44.043965  8.1079016
83.7  33.510247  8.1081501
83.8  26.764582  8.1083977
83.9  33.093941  8.1086445
84  35.17585  8.1088904
84.1  24.59217  8.1091354
84.2  37.476342  8.1093796
84.3  44.51404  8.109623
84.4  32.158858  8.1098655
84.5  51.564288  8.1101072
84.6  36.783449  8.110348
84.7  31.707753  8.110588
84.8  29.917628  8.1108272
84.9  25.255508  8.1110655
85  27.804014  8.111303

