# Created by:        SpecsLab Prodigy, Version 4.84.1-r101483 
#
# XY-Serializer Export Settings:
#   Comment Prefix:           #
#   Output Meta Data:         yes
#   Energy Axis:              Kinetic Energy
#   Count Rate:               Counts per Second
#   Separate Scan Data:       no
#   Separate Channel Data:    no
#   External Channel Data:    yes
#   Transmission Function:    yes
#   Error Bar:                no
#   Operation Results:        yes
#   Time Zone Format:         UTC
#
# Group:                        L-serine pH 7 500 mM
#
# Region:                       VBM
# Spectrum ID:                  686
# Acquisition Date:             03/12/26 14:58:58 UTC
# Analysis Method:              XPS
# Analyzer:                     Phoibos
# Analyzer Lens:                LargeArea:3.5kV
# Analyzer Slit:                5:7x20\B:open
# Scan Mode:                    FixedAnalyzerTransmission
# Curves/Scan:                  1
# Values/Curve:                 251
# Dwell Time:                   0.1
# Excitation Energy:            700
# Kinetic Energy:               680
# Pass Energy:                  10
# Bias Voltage:                 220
# Detector Voltage:             1920
# Eff. Workfunction:            0
# Source:                       Monochromator
# Comment:                      

# Cycle: 0
#
# Number of Scans: 2

# Cycle: 0, Curve: 0
#
# Acquisition Date:             03/12/26 14:58:58 UTC
# ColumnLabels:                 energy counts/s transmission
#
680  153.85541  7.4909547
680.1  209.83787  7.4908302
680.2  182.95834  7.4907058
680.3  97.471435  7.4905814
680.4  106.51054  7.4904569
680.5  124.25575  7.4903325
680.6  125.3116  7.4902081
680.7  129.66994  7.4900837
680.8  116.60126  7.4899593
680.9  141.97968  7.489835
681  147.25068  7.4897106
681.1  128.00768  7.4895862
681.2  111.75362  7.4894619
681.3  111.63331  7.4893375
681.4  136.29903  7.4892132
681.5  128.05907  7.4890888
681.6  88.722179  7.4889645
681.7  84.608896  7.4888402
681.8  82.000049  7.4887158
681.9  72.867136  7.4885915
682  89.298755  7.4884672
682.1  105.05494  7.4883429
682.2  104.54511  7.4882186
682.3  75.679725  7.4880943
682.4  67.080765  7.4879701
682.5  83.59601  7.4878458
682.6  97.01832  7.4877215
682.7  90.90167  7.4875973
682.8  72.50146  7.487473
682.9  78.05895  7.4873488
683  62.252714  7.4872245
683.1  99.96897  7.4871003
683.2  46.875986  7.4869761
683.3  59.315695  7.4868519
683.4  69.61341  7.4867277
683.5  99.25999  7.4866035
683.6  121.16218  7.4864793
683.7  99.749138  7.4863551
683.8  139.46786  7.4862309
683.9  84.46735  7.4861067
684  99.57118  7.4859825
684.1  93.428974  7.4858584
684.2  88.302776  7.4857342
684.3  116.96882  7.4856101
684.4  94.83512  7.4854859
684.5  94.710028  7.4853618
684.6  93.966187  7.4852377
684.7  136.41022  7.4851136
684.8  219.92446  7.4849895
684.9  147.9677  7.4848653
685  159.55521  7.4847413
685.1  200.39458  7.4846172
685.2  223.6112  7.4844931
685.3  216.0319  7.484369
685.4  278.00272  7.4842449
685.5  328.27453  7.4841209
685.6  307.52695  7.4839968
685.7  252.79203  7.4838728
685.8  297.9885  7.4837487
685.9  364.66657  7.4836247
686  427.84456  7.4835006
686.1  486.81891  7.4833766
686.2  474.47762  7.4832526
686.3  483.07199  7.4831286
686.4  489.64421  7.4830046
686.5  444.95627  7.4828806
686.6  453.46314  7.4827566
686.7  417.53483  7.4826326
686.8  431.9611  7.4825087
686.9  438.51821  7.4823847
687  488.66975  7.4822607
687.1  494.87298  7.4821368
687.2  504.5729  7.4820128
687.3  539.78209  7.4818889
687.4  393.86873  7.481765
687.5  391.87477  7.481641
687.6  500.57404  7.4815171
687.7  497.83395  7.4813932
687.8  474.0541  7.4812693
687.9  378.78455  7.4811454
688  424.14838  7.4810215
688.1  362.60122  7.4808976
688.2  320.35322  7.4807737
688.3  354.6928  7.4806499
688.4  295.94704  7.480526
688.5  364.11712  7.4804022
688.6  378.60892  7.4802783
688.7  379.86539  7.4801545
688.8  412.10316  7.4800306
688.9  498.5399  7.4799068
689  499.27117  7.479783
689.1  631.14713  7.4796592
689.2  886.11496  7.4795354
689.3  828.04439  7.4794116
689.4  887.73678  7.4792878
689.5  889.20136  7.479164
689.6  983.22742  7.4790402
689.7  1031.3172  7.4789164
689.8  957.90293  7.4787926
689.9  1012.8766  7.4786689
690  1021.518  7.4785451
690.1  953.78434  7.4784214
690.2  870.55776  7.4782977
690.3  878.67222  7.4781739
690.4  871.31118  7.4780502
690.5  883.46665  7.4779265
690.6  820.63016  7.4778028
690.7  866.58148  7.4776791
690.8  872.47199  7.4775554
690.9  826.71187  7.4774317
691  827.82045  7.477308
691.1  873.47769  7.4771843
691.2  861.07566  7.4770606
691.3  824.18972  7.476937
691.4  945.07605  7.4768133
691.5  997.79137  7.4766897
691.6  1094.8685  7.476566
691.7  839.35021  7.4764424
691.8  963.45467  7.4763188
691.9  832.31899  7.4761951
692  634.86092  7.4760715
692.1  635.4685  7.4759479
692.2  634.518  7.4758243
692.3  699.25199  7.4757007
692.4  750.68697  7.4755771
692.5  764.64825  7.4754536
692.6  843.95935  7.47533
692.7  878.5269  7.4752064
692.8  951.89978  7.4750829
692.9  948.28002  7.4749593
693  967.91111  7.4748358
693.1  1034.5987  7.4747122
693.2  944.21381  7.4745887
693.3  910.19709  7.4744652
693.4  886.39704  7.4743416
693.5  783.53558  7.4742181
693.6  767.19964  7.4740946
693.7  630.43217  7.4739711
693.8  576.91606  7.4738476
693.9  450.9366  7.4737242
694  359.37404  7.4736007
694.1  334.38865  7.4734772
694.2  231.10068  7.4733537
694.3  176.15949  7.4732303
694.4  115.85492  7.4731068
694.5  107.30996  7.4729834
694.6  88.101499  7.47286
694.7  55.973596  7.4727365
694.8  54.11544  7.4726131
694.9  52.033905  7.4724897
695  56.488505  7.4723663
695.1  42.51064  7.4722429
695.2  26.91968  7.4721195
695.3  18.76528  7.4719961
695.4  41.78387  7.4718727
695.5  17.01998  7.4717494
695.6  14.779475  7.471626
695.7  27.701925  7.4715026
695.8  12.56161  7.4713793
695.9  12.42949  7.4712559
696  18.5916  7.4711326
696.1  13.71915  7.4710093
696.2  14.79154  7.4708859
696.3  6.70601  7.4707626
696.4  2.310765  7.4706393
696.5  7.948935  7.470516
696.6  10.813275  7.4703927
696.7  14.608175  7.4702694
696.8  9.919144  7.4701461
696.9  8.974471  7.4700229
697  12.864554  7.4698996
697.1  18.330931  7.4697763
697.2  0.5573  7.4696531
697.3  0  7.4695298
697.4  0.085319  7.4694066
697.5  5.127631  7.4692833
697.6  9.95325  7.4691601
697.7  4.8338  7.4690369
697.8  2.77455  7.4689137
697.9  2.22545  7.4687905
698  0.97875  7.4686673
698.1  4.02125  7.4685441
698.2  2.1319  7.4684209
698.3  8.0343  7.4682977
698.4  24.9962  7.4681745
698.5  9.61645  7.4680514
698.6  11.285195  7.4679282
698.7  14.574805  7.4678051
698.8  4.36115  7.4676819
698.9  3.5448  7.4675588
699  1.4552  7.4674356
699.1  8.07285  7.4673125
699.2  15.04675  7.4671894
699.3  1.8804  7.4670663
699.4  0  7.4669432
699.5  0.72795  7.4668201
699.6  6.110819  7.466697
699.7  10.897931  7.4665739
699.8  12.7745  7.4664508
699.9  11.3699  7.4663278
700  6.7958  7.4662047
700.1  1.3231  7.4660816
700.2  0  7.4659586
700.3  0  7.4658355
700.4  0.3406  7.4657125
700.5  7.94895  7.4655895
700.6  5.25525  7.4654665
700.7  12.85984  7.4653434
700.8  6.11461  7.4652204
700.9  2.48075  7.4650974
701  3.15745  7.4649744
701.1  6.66815  7.4648515
701.2  0.1744  7.4647285
701.3  4.4427  7.4646055
701.4  8.9277  7.4644825
701.5  3.251  7.4643596
701.6  3.3786  7.4642366
701.7  0  7.4641137
701.8  4.9577  7.4639907
701.9  0.0423  7.4638678
702  4.230419  7.4637449
702.1  17.221031  7.463622
702.2  4.40415  7.4634991
702.3  9.0976  7.4633761
702.4  0.0468  7.4632532
702.5  0  7.4631304
702.6  9.4004  7.4630075
702.7  2.7315  7.4628846
702.8  8.16635  7.4627617
702.9  4.70175  7.4626389
703  0  7.462516
703.1  11.1026  7.4623932
703.2  8.8974  7.4622703
703.3  0  7.4621475
703.4  4.5748  7.4620247
703.5  5.3829  7.4619018
703.6  11.28149  7.461779
703.7  12.25881  7.4616562
703.8  8.251  7.4615334
703.9  11.19615  7.4614106
704  7.91045  7.4612878
704.1  9.83005  7.461165
704.2  4.31435  7.4610423
704.3  0  7.4609195
704.4  3.1619  7.4607967
704.5  4.4382  7.460674
704.6  10.55735  7.4605512
704.7  4.2342  7.4604285
704.8  5.63815  7.4603058
704.9  4.36185  7.460183
705  4.3618  7.4600603

