# Created by:        SpecsLab Prodigy, Version 4.84.1-r101483 
#
# XY-Serializer Export Settings:
#   Comment Prefix:           #
#   Output Meta Data:         yes
#   Energy Axis:              Kinetic Energy
#   Count Rate:               Counts per Second
#   Separate Scan Data:       no
#   Separate Channel Data:    no
#   External Channel Data:    yes
#   Transmission Function:    yes
#   Error Bar:                no
#   Operation Results:        yes
#   Time Zone Format:         UTC
#
# Group:                        L-serine pH 7 500 mM
#
# Region:                       VBM
# Spectrum ID:                  618
# Acquisition Date:             03/12/26 05:46:29 UTC
# Analysis Method:              XPS
# Analyzer:                     Phoibos
# Analyzer Lens:                LargeArea:3.5kV
# Analyzer Slit:                5:7x20\B:open
# Scan Mode:                    FixedAnalyzerTransmission
# Curves/Scan:                  1
# Values/Curve:                 251
# Dwell Time:                   0.1
# Excitation Energy:            490
# Kinetic Energy:               470
# Pass Energy:                  10
# Bias Voltage:                 220
# Detector Voltage:             1920
# Eff. Workfunction:            0
# Source:                       Monochromator
# Comment:                      

# Cycle: 0
#
# Number of Scans: 2

# Cycle: 0, Curve: 0
#
# Acquisition Date:             03/12/26 05:46:29 UTC
# ColumnLabels:                 energy counts/s transmission
#
470  4865.3902  7.7670744
470.1  4750.3644  7.7669366
470.2  4558.3723  7.7667987
470.3  4310.7248  7.7666609
470.4  4169.3429  7.7665231
470.5  3948.1715  7.7663853
470.6  3905.6147  7.7662475
470.7  3861.5101  7.7661097
470.8  3833.2606  7.7659719
470.9  3743.213  7.7658341
471  3419.3238  7.7656963
471.1  3534.6088  7.7655585
471.2  3407.0283  7.7654208
471.3  3521.525  7.765283
471.4  3290.2844  7.7651452
471.5  3125.9063  7.7650075
471.6  3004.0413  7.7648697
471.7  2992.0301  7.764732
471.8  2756.5024  7.7645942
471.9  2631.9096  7.7644565
472  2585.9211  7.7643187
472.1  2604.5614  7.764181
472.2  2611.3073  7.7640433
472.3  2576.3373  7.7639056
472.4  2420.324  7.7637678
472.5  2286.9696  7.7636301
472.6  2366.0051  7.7634924
472.7  2422.282  7.7633547
472.8  2495.2003  7.763217
472.9  2349.8175  7.7630793
473  2275.1584  7.7629416
473.1  2272.705  7.7628039
473.2  2258.9021  7.7626663
473.3  2212.9053  7.7625286
473.4  2243.9585  7.7623909
473.5  2211.8447  7.7622532
473.6  2124.6686  7.7621156
473.7  2073.1346  7.7619779
473.8  1967.6297  7.7618403
473.9  1774.2225  7.7617026
474  1730.5111  7.761565
474.1  1746.1245  7.7614273
474.2  1667.0942  7.7612897
474.3  1768.7276  7.7611521
474.4  1635.7033  7.7610145
474.5  1623.3474  7.7608768
474.6  1506.3463  7.7607392
474.7  1582.9866  7.7606016
474.8  1522.1814  7.760464
474.9  1414.6064  7.7603264
475  1555.4579  7.7601888
475.1  1455.5954  7.7600512
475.2  1444.6391  7.7599136
475.3  1522.3321  7.7597761
475.4  1499.3221  7.7596385
475.5  1505.1681  7.7595009
475.6  1506.5931  7.7593634
475.7  1587.2829  7.7592258
475.8  1710.3047  7.7590882
475.9  1782.3264  7.7589507
476  1747.2203  7.7588131
476.1  1737.4254  7.7586756
476.2  1907.9894  7.7585381
476.3  2096.8664  7.7584005
476.4  2013.1964  7.758263
476.5  2403.8978  7.7581255
476.6  2496.5094  7.757988
476.7  2554.7437  7.7578505
476.8  2894.9358  7.757713
476.9  3134.2441  7.7575755
477  3160.3353  7.757438
477.1  3493.6872  7.7573005
477.2  3760.9768  7.757163
477.3  3894.1017  7.7570255
477.4  4514.7537  7.756888
477.5  4647.5538  7.7567506
477.6  5253.0986  7.7566131
477.7  6029.2884  7.7564756
477.8  6069.6779  7.7563382
477.9  6392.2542  7.7562007
478  6765.2173  7.7560633
478.1  7120.6863  7.7559258
478.2  7114.4923  7.7557884
478.3  7528.4744  7.755651
478.4  8000.4828  7.7555135
478.5  8432.4762  7.7553761
478.6  8707.3521  7.7552387
478.7  9058.7637  7.7551013
478.8  9067.317  7.7549639
478.9  9207.6888  7.7548265
479  8816.5524  7.7546891
479.1  8873.4722  7.7545517
479.2  8938.4608  7.7544143
479.3  8895.3253  7.7542769
479.4  8967.6092  7.7541395
479.5  9040.6992  7.7540022
479.6  8969.7918  7.7538648
479.7  8637.231  7.7537274
479.8  8412.0135  7.7535901
479.9  8486.1725  7.7534527
480  7905.2669  7.7533154
480.1  7631.0067  7.753178
480.2  7204.0423  7.7530407
480.3  7247.2722  7.7529034
480.4  6976.3516  7.752766
480.5  7234.4141  7.7526287
480.6  6701.9695  7.7524914
480.7  7110.9453  7.7523541
480.8  8292.0472  7.7522168
480.9  8843.987  7.7520795
481  9783.2613  7.7519422
481.1  11077.808  7.7518049
481.2  12164.584  7.7516676
481.3  13455.391  7.7515303
481.4  14655.527  7.751393
481.5  16138.459  7.7512558
481.6  17327.396  7.7511185
481.7  18094.976  7.7509812
481.8  18604.67  7.750844
481.9  19285.983  7.7507067
482  18753.984  7.7505695
482.1  18616.196  7.7504322
482.2  18500.104  7.750295
482.3  18225.031  7.7501578
482.4  17664.994  7.7500205
482.5  17880.533  7.7498833
482.6  17269.691  7.7497461
482.7  17041.862  7.7496089
482.8  17255.762  7.7494717
482.9  17526.274  7.7493345
483  17472.319  7.7491973
483.1  18005.789  7.7490601
483.2  18021.383  7.7489229
483.3  18361.818  7.7487857
483.4  18815.666  7.7486485
483.5  19376.204  7.7485114
483.6  20065.403  7.7483742
483.7  20918.74  7.748237
483.8  20796.263  7.7480999
483.9  20785.965  7.7479627
484  19850.098  7.7478256
484.1  18020.563  7.7476884
484.2  17177.561  7.7475513
484.3  15739.25  7.7474142
484.4  14907.976  7.7472771
484.5  15071.428  7.7471399
484.6  15188.955  7.7470028
484.7  15973.836  7.7468657
484.8  16785.861  7.7467286
484.9  17299.432  7.7465915
485  18000.247  7.7464544
485.1  18921.814  7.7463173
485.2  19089.673  7.7461802
485.3  19348.007  7.7460432
485.4  19019.859  7.7459061
485.5  18746.639  7.745769
485.6  18100.459  7.745632
485.7  17564.633  7.7454949
485.8  15540.833  7.7453578
485.9  13715.5  7.7452208
486  12393.094  7.7450838
486.1  10602.324  7.7449467
486.2  8475.9435  7.7448097
486.3  7000.5211  7.7446727
486.4  6071.1298  7.7445356
486.5  4822.4569  7.7443986
486.6  3718.8394  7.7442616
486.7  2983.7894  7.7441246
486.8  2241.0619  7.7439876
486.9  1739.954  7.7438506
487  1442.6552  7.7437136
487.1  1169.6187  7.7435766
487.2  1105.4898  7.7434396
487.3  873.71991  7.7433027
487.4  720.44869  7.7431657
487.5  659.02659  7.7430287
487.6  500.19662  7.7428918
487.7  437.46884  7.7427548
487.8  320.21245  7.7426179
487.9  302.30402  7.7424809
488  215.15108  7.742344
488.1  232.10417  7.7422071
488.2  232.62036  7.7420701
488.3  204.96758  7.7419332
488.4  131.37753  7.7417963
488.5  102.12901  7.7416594
488.6  131.61241  7.7415225
488.7  117.29501  7.7413856
488.8  119.08692  7.7412487
488.9  85.459311  7.7411118
489  62.471825  7.7409749
489.1  94.4938  7.740838
489.2  67.17881  7.7407011
489.3  108.02682  7.7405643
489.4  64.589844  7.7404274
489.5  69.305976  7.7402905
489.6  71.40095  7.7401537
489.7  59.505235  7.7400168
489.8  55.89414  7.73988
489.9  62.131875  7.7397432
490  55.02982  7.7396063
490.1  35.735235  7.7394695
490.2  58.005295  7.7393327
490.3  59.911028  7.7391959
490.4  71.204357  7.739059
490.5  53.547885  7.7389222
490.6  47.47248  7.7387854
490.7  57.17565  7.7386486
490.8  65.99453  7.7385119
490.9  41.225844  7.7383751
491  83.83419  7.7382383
491.1  49.586711  7.7381015
491.2  49.53173  7.7379647
491.3  67.226845  7.737828
491.4  66.493789  7.7376912
491.5  62.947566  7.7375545
491.6  43.889735  7.7374177
491.7  65.681279  7.737281
491.8  39.237236  7.7371442
491.9  47.2307  7.7370075
492  41.233265  7.7368708
492.1  38.80456  7.7367341
492.2  46.19232  7.7365973
492.3  43.122024  7.7364606
492.4  30.425181  7.7363239
492.5  33.80524  7.7361872
492.6  48.45956  7.7360505
492.7  25.777715  7.7359138
492.8  32.09484  7.7357772
492.9  43.957245  7.7356405
493  52.608369  7.7355038
493.1  46.884831  7.7353671
493.2  50.808825  7.7352305
493.3  34.535565  7.7350938
493.4  26.79576  7.7349572
493.5  37.64247  7.7348205
493.6  38.76666  7.7346839
493.7  38.936005  7.7345472
493.8  41.834255  7.7344106
493.9  47.046535  7.734274
494  43.753345  7.7341374
494.1  58.51072  7.7340008
494.2  26.509525  7.7338641
494.3  23.25235  7.7337275
494.4  30.033384  7.7335909
494.5  34.701751  7.7334543
494.6  12.47625  7.7333178
494.7  25.256  7.7331812
494.8  35.468965  7.7330446
494.9  51.923325  7.732908
495  34.833155  7.7327715

