# Created by:        SpecsLab Prodigy, Version 4.84.1-r101483 
#
# XY-Serializer Export Settings:
#   Comment Prefix:           #
#   Output Meta Data:         yes
#   Energy Axis:              Kinetic Energy
#   Count Rate:               Counts per Second
#   Separate Scan Data:       no
#   Separate Channel Data:    no
#   External Channel Data:    yes
#   Transmission Function:    yes
#   Error Bar:                no
#   Operation Results:        yes
#   Time Zone Format:         UTC
#
# Group:                        L-serine pH 7 500 mM
#
# Region:                       O 1s ref
# Spectrum ID:                  642
# Acquisition Date:             03/12/26 08:08:58 UTC
# Analysis Method:              XPS
# Analyzer:                     Phoibos
# Analyzer Lens:                LargeArea:3.5kV
# Analyzer Slit:                5:7x20\B:open
# Scan Mode:                    FixedAnalyzerTransmission
# Curves/Scan:                  1
# Values/Curve:                 151
# Dwell Time:                   0.1
# Excitation Energy:            900
# Kinetic Energy:               360
# Pass Energy:                  20
# Bias Voltage:                 220
# Detector Voltage:             1920
# Eff. Workfunction:            0
# Source:                       Monochromator
# Comment:                      

# Cycle: 0
#
# Number of Scans: 1

# Cycle: 0, Curve: 0
#
# Acquisition Date:             03/12/26 08:08:58 UTC
# ColumnLabels:                 energy counts/s transmission
#
360  10467.642  16.44968
360.1  10582.055  16.449603
360.2  10409.297  16.449526
360.3  9993.7329  16.449449
360.4  9872.0359  16.449371
360.5  9880.8762  16.449294
360.6  9659.9719  16.449217
360.7  9549.8017  16.449139
360.8  9152.5662  16.449062
360.9  9106.4564  16.448985
361  8764.9432  16.448907
361.1  8956.421  16.448829
361.2  9017.9726  16.448752
361.3  8688.4435  16.448674
361.4  8518.3586  16.448596
361.5  8888.3182  16.448518
361.6  8863.4061  16.44844
361.7  8918.1474  16.448363
361.8  9196.8935  16.448285
361.9  9001.9128  16.448206
362  8711.4045  16.448128
362.1  8954.4573  16.44805
362.2  9271.8919  16.447972
362.3  8749.1555  16.447894
362.4  9188.176  16.447815
362.5  9194.0095  16.447737
362.6  9758.4568  16.447658
362.7  9672.973  16.44758
362.8  9573.0606  16.447501
362.9  9907.9559  16.447423
363  9739.9397  16.447344
363.1  10157.411  16.447265
363.2  10178.561  16.447187
363.3  10515.46  16.447108
363.4  10498.579  16.447029
363.5  10793.589  16.44695
363.6  10712.191  16.446871
363.7  11453.647  16.446792
363.8  11622.594  16.446713
363.9  12049.388  16.446634
364  12619.021  16.446554
364.1  13323.377  16.446475
364.2  14506.556  16.446396
364.3  17069.029  16.446316
364.4  19980.333  16.446237
364.5  24556.738  16.446158
364.6  29742.113  16.446078
364.7  38629.432  16.445998
364.8  49448.004  16.445919
364.9  61850.1  16.445839
365  73522.018  16.445759
365.1  82328.091  16.445679
365.2  85838.253  16.4456
365.3  84383.821  16.44552
365.4  77310.626  16.44544
365.5  66941.827  16.44536
365.6  59179.738  16.44528
365.7  54697.599  16.445199
365.8  53364.281  16.445119
365.9  55579.514  16.445039
366  62962.62  16.444959
366.1  72659.577  16.444878
366.2  83131.825  16.444798
366.3  96115.628  16.444718
366.4  108820.79  16.444637
366.5  121781.4  16.444556
366.6  135830.45  16.444476
366.7  146867.63  16.444395
366.8  159462.7  16.444314
366.9  167771.06  16.444234
367  171153.53  16.444153
367.1  174244.16  16.444072
367.2  175355.62  16.443991
367.3  171397.79  16.44391
367.4  161650  16.443829
367.5  149461.64  16.443748
367.6  137651.83  16.443667
367.7  125203.65  16.443586
367.8  110348.77  16.443504
367.9  94737.528  16.443423
368  81797.014  16.443342
368.1  67523.215  16.44326
368.2  56277.808  16.443179
368.3  48657.232  16.443097
368.4  40339.454  16.443016
368.5  33142.384  16.442934
368.6  28432.944  16.442852
368.7  24090.848  16.442771
368.8  21050.739  16.442689
368.9  18596.462  16.442607
369  17058.796  16.442525
369.1  15805.01  16.442443
369.2  15048.027  16.442361
369.3  14209.74  16.442279
369.4  13411.126  16.442197
369.5  12569.269  16.442115
369.6  11975.591  16.442033
369.7  11310.09  16.44195
369.8  11055.022  16.441868
369.9  11098.223  16.441786
370  10889.402  16.441703
370.1  10764.31  16.441621
370.2  10376.701  16.441538
370.3  9999.6707  16.441456
370.4  9881.8248  16.441373
370.5  9812.8706  16.441291
370.6  9492.4514  16.441208
370.7  9479.3186  16.441125
370.8  9125.1708  16.441042
370.9  9652.6944  16.440959
371  9584.115  16.440876
371.1  9148.6042  16.440793
371.2  9338.0527  16.44071
371.3  8944.4891  16.440627
371.4  8886.3054  16.440544
371.5  9221.8949  16.440461
371.6  9710.0743  16.440378
371.7  9049.3166  16.440295
371.8  8761.1614  16.440211
371.9  9263.912  16.440128
372  9220.1281  16.440044
372.1  8824.032  16.439961
372.2  9215.8974  16.439877
372.3  8811.8876  16.439794
372.4  8592.2378  16.43971
372.5  8776.1252  16.439626
372.6  8713.8132  16.439543
372.7  8842.1389  16.439459
372.8  8677.2144  16.439375
372.9  8366.3567  16.439291
373  8675.5325  16.439207
373.1  9084.8967  16.439123
373.2  9041.1562  16.439039
373.3  8570.6725  16.438955
373.4  8378.9414  16.438871
373.5  8766.1008  16.438787
373.6  8694.4334  16.438703
373.7  8568.4728  16.438618
373.8  8434.8394  16.438534
373.9  8463.2668  16.438449
374  8769.1167  16.438365
374.1  8800.1923  16.438281
374.2  8900.0316  16.438196
374.3  8561.6168  16.438111
374.4  8703.1178  16.438027
374.5  8785.8684  16.437942
374.6  8507.1  16.437857
374.7  8725.2021  16.437772
374.8  8905.9244  16.437688
374.9  8516.1945  16.437603
375  8510.6384  16.437518

