# Created by:        SpecsLab Prodigy, Version 4.84.1-r101483 
#
# XY-Serializer Export Settings:
#   Comment Prefix:           #
#   Output Meta Data:         yes
#   Energy Axis:              Kinetic Energy
#   Count Rate:               Counts per Second
#   Separate Scan Data:       no
#   Separate Channel Data:    no
#   External Channel Data:    yes
#   Transmission Function:    yes
#   Error Bar:                no
#   Operation Results:        yes
#   Time Zone Format:         UTC
#
# Group:                        L-serine pH 7 500 mM
#
# Region:                       N 1s 80
# Spectrum ID:                  694
# Acquisition Date:             03/12/26 15:48:19 UTC
# Analysis Method:              XPS
# Analyzer:                     Phoibos
# Analyzer Lens:                LargeArea:3.5kV
# Analyzer Slit:                5:7x20\B:open
# Scan Mode:                    FixedAnalyzerTransmission
# Curves/Scan:                  1
# Values/Curve:                 301
# Dwell Time:                   0.1
# Excitation Energy:            490
# Kinetic Energy:               70
# Pass Energy:                  10
# Bias Voltage:                 220
# Detector Voltage:             1920
# Eff. Workfunction:            0
# Source:                       Monochromator
# Comment:                      

# Cycle: 0
#
# Number of Scans: 20

# Cycle: 0, Curve: 0
#
# Acquisition Date:             03/12/26 15:48:19 UTC
# ColumnLabels:                 energy counts/s transmission
#
70  28.477832  8.0648954
70.1  28.863084  8.0652883
70.2  35.300246  8.0656799
70.3  38.883799  8.0660702
70.4  38.738974  8.0664592
70.5  34.689728  8.066847
70.6  32.05575  8.0672334
70.7  37.67898  8.0676186
70.8  33.517741  8.0680024
70.9  35.009929  8.0683851
71  38.175649  8.0687664
71.1  32.18606  8.0691465
71.2  34.256278  8.0695253
71.3  31.032126  8.0699028
71.4  38.007943  8.0702791
71.5  34.17061  8.0706542
71.6  32.134101  8.071028
71.7  35.947226  8.0714006
71.8  33.991358  8.0717719
71.9  33.818719  8.072142
72  37.302534  8.0725109
72.1  30.066682  8.0728785
72.2  33.920752  8.0732449
72.3  35.542536  8.0736102
72.4  25.532441  8.0739742
72.5  36.801281  8.0743369
72.6  32.548809  8.0746985
72.7  32.304327  8.0750589
72.8  43.455789  8.0754181
72.9  33.915561  8.0757761
73  34.780805  8.0761329
73.1  30.01842  8.0764885
73.2  36.278785  8.0768429
73.3  32.802326  8.0771962
73.4  32.16998  8.0775483
73.5  36.12379  8.0778992
73.6  35.891124  8.0782489
73.7  37.93046  8.0785975
73.8  38.459439  8.0789449
73.9  31.748356  8.0792912
74  32.787689  8.0796363
74.1  35.556402  8.0799803
74.2  33.591195  8.0803231
74.3  39.876863  8.0806647
74.4  45.104409  8.0810053
74.5  37.02764  8.0813447
74.6  34.222837  8.0816829
74.7  32.276434  8.0820201
74.8  34.364502  8.0823561
74.9  31.070561  8.082691
75  34.856611  8.0830248
75.1  31.649924  8.0833575
75.2  33.107118  8.083689
75.3  36.417905  8.0840195
75.4  38.342521  8.0843488
75.5  37.275919  8.0846771
75.6  37.100671  8.0850042
75.7  32.192418  8.0853303
75.8  34.601816  8.0856552
75.9  32.187289  8.0859791
76  39.178645  8.0863019
76.1  39.900805  8.0866236
76.2  35.942277  8.0869443
76.3  31.723776  8.0872639
76.4  30.307763  8.0875824
76.5  35.014859  8.0878998
76.6  33.068552  8.0882162
76.7  37.336383  8.0885315
76.8  39.876804  8.0888457
76.9  35.323237  8.0891589
77  35.644346  8.0894711
77.1  40.069495  8.0897822
77.2  37.727057  8.0900923
77.3  39.219293  8.0904013
77.4  40.329672  8.0907093
77.5  41.487767  8.0910162
77.6  38.658556  8.0913221
77.7  34.887193  8.091627
77.8  39.280709  8.0919309
77.9  34.73751  8.0922337
78  36.995032  8.0925355
78.1  38.024766  8.0928364
78.2  35.460299  8.0931362
78.3  33.512229  8.0934349
78.4  33.92585  8.0937327
78.5  38.906272  8.0940295
78.6  43.524408  8.0943253
78.7  39.643991  8.0946201
78.8  32.53629  8.0949138
78.9  37.691443  8.0952066
79  37.06664  8.0954984
79.1  37.450944  8.0957893
79.2  40.194781  8.0960791
79.3  38.989612  8.0963679
79.4  40.113814  8.0966558
79.5  37.362735  8.0969427
79.6  38.246158  8.0972287
79.7  38.66486  8.0975136
79.8  42.676543  8.0977976
79.9  41.684165  8.0980807
80  39.920689  8.0983627
80.1  30.301247  8.0986439
80.2  35.86001  8.098924
80.3  37.667046  8.0992033
80.4  38.379852  8.0994815
80.5  39.148891  8.0997588
80.6  38.981898  8.1000352
80.7  43.50172  8.1003107
80.8  37.77356  8.1005852
80.9  36.84283  8.1008587
81  30.264878  8.1011314
81.1  32.133089  8.1014031
81.2  41.38895  8.1016739
81.3  35.278397  8.1019437
81.4  31.944407  8.1022127
81.5  38.63014  8.1024807
81.6  42.244134  8.1027478
81.7  37.557428  8.103014
81.8  35.738177  8.1032793
81.9  36.466712  8.1035436
82  34.462548  8.1038071
82.1  37.531596  8.1040697
82.2  38.876738  8.1043313
82.3  39.424312  8.1045921
82.4  40.880582  8.104852
82.5  40.024832  8.1051109
82.6  32.628817  8.105369
82.7  33.228047  8.1056262
82.8  35.943888  8.1058826
82.9  35.93358  8.106138
83  34.451168  8.1063926
83.1  36.425882  8.1066463
83.2  38.781229  8.1068991
83.3  34.402058  8.107151
83.4  33.500845  8.1074021
83.5  31.959289  8.1076523
83.6  33.66543  8.1079016
83.7  41.580075  8.1081501
83.8  37.405589  8.1083977
83.9  34.557816  8.1086445
84  35.429493  8.1088904
84.1  37.355411  8.1091354
84.2  39.958119  8.1093796
84.3  29.499524  8.109623
84.4  35.702519  8.1098655
84.5  40.839418  8.1101072
84.6  35.030897  8.110348
84.7  37.879176  8.110588
84.8  34.324215  8.1108272
84.9  43.689315  8.1110655
85  39.473708  8.111303
85.1  38.007495  8.1115396
85.2  35.11466  8.1117755
85.3  33.510383  8.1120105
85.4  38.132292  8.1122447
85.5  42.199069  8.1124781
85.6  42.382769  8.1127106
85.7  38.902295  8.1129424
85.8  35.814846  8.1131733
85.9  37.687813  8.1134034
86  45.281191  8.1136328
86.1  42.210074  8.1138613
86.2  35.291773  8.114089
86.3  44.904176  8.1143159
86.4  41.700589  8.114542
86.5  35.336801  8.1147673
86.6  37.787183  8.1149918
86.7  38.00678  8.1152155
86.8  37.318256  8.1154385
86.9  41.782713  8.1156606
87  44.898  8.115882
87.1  41.394095  8.1161026
87.2  40.56384  8.1163224
87.3  46.164334  8.1165414
87.4  40.643138  8.1167596
87.5  38.125329  8.1169771
87.6  37.598031  8.1171938
87.7  38.008068  8.1174097
87.8  41.985028  8.1176249
87.9  37.456193  8.1178393
88  39.308574  8.1180529
88.1  40.867815  8.1182658
88.2  41.698093  8.1184779
88.3  41.384089  8.1186892
88.4  42.531018  8.1188998
88.5  38.125893  8.1191097
88.6  45.627216  8.1193187
88.7  45.598253  8.1195271
88.8  43.553448  8.1197347
88.9  41.977451  8.1199415
89  47.025604  8.1201476
89.1  50.674903  8.120353
89.2  40.796276  8.1205576
89.3  46.186138  8.1207615
89.4  50.582831  8.1209646
89.5  49.171956  8.121167
89.6  51.671321  8.1213687
89.7  50.942071  8.1215697
89.8  49.361126  8.1217699
89.9  50.93091  8.1219694
90  54.522558  8.1221682
90.1  56.837403  8.1223662
90.2  62.341966  8.1225636
90.3  55.855584  8.1227602
90.4  53.225413  8.1229561
90.5  53.679456  8.1231513
90.6  50.169763  8.1233458
90.7  47.472346  8.1235395
90.8  51.869642  8.1237326
90.9  50.88339  8.1239249
91  45.553305  8.1241166
91.1  48.330699  8.1243075
91.2  52.417353  8.1244978
91.3  44.231368  8.1246873
91.4  48.743323  8.1248762
91.5  45.00355  8.1250643
91.6  44.633624  8.1252518
91.7  38.541983  8.1254386
91.8  46.081917  8.1256246
91.9  45.603905  8.12581
92  44.88923  8.1259947
92.1  45.260131  8.1261788
92.2  41.053129  8.1263621
92.3  49.381137  8.1265448
92.4  53.046714  8.1267267
92.5  51.395311  8.126908
92.6  58.966631  8.1270887
92.7  47.493527  8.1272686
92.8  40.673676  8.1274479
92.9  45.489664  8.1276265
93  40.656489  8.1278045
93.1  40.999609  8.1279818
93.2  43.350344  8.1281584
93.3  47.413749  8.1283343
93.4  46.499301  8.1285096
93.5  40.252146  8.1286842
93.6  49.66329  8.1288582
93.7  47.947857  8.1290315
93.8  41.106643  8.1292042
93.9  48.113525  8.1293762
94  42.749804  8.1295476
94.1  42.55601  8.1297183
94.2  41.025377  8.1298884
94.3  39.997668  8.1300578
94.4  43.656311  8.1302265
94.5  44.381251  8.1303947
94.6  46.978089  8.1305622
94.7  45.494779  8.130729
94.8  50.099159  8.1308952
94.9  49.256486  8.1310608
95  47.014361  8.1312258
95.1  40.433193  8.1313901
95.2  44.436311  8.1315538
95.3  47.23321  8.1317168
95.4  48.807228  8.1318792
95.5  48.425839  8.132041
95.6  50.258838  8.1322022
95.7  48.444374  8.1323628
95.8  44.105071  8.1325227
95.9  45.011193  8.132682
96  48.229909  8.1328407
96.1  44.083839  8.1329988
96.2  48.107261  8.1331563
96.3  40.6361  8.1333131
96.4  43.471542  8.1334693
96.5  43.780092  8.133625
96.6  51.613635  8.13378
96.7  46.168406  8.1339344
96.8  43.96028  8.1340882
96.9  44.384467  8.1342414
97  49.876052  8.134394
97.1  54.867286  8.134546
97.2  50.2899  8.1346974
97.3  42.985122  8.1348482
97.4  48.261292  8.1349984
97.5  52.820004  8.135148
97.6  48.356943  8.1352971
97.7  48.717116  8.1354455
97.8  46.468837  8.1355933
97.9  42.59892  8.1357406
98  53.122572  8.1358872
98.1  46.436037  8.1360333
98.2  47.25757  8.1361788
98.3  54.353125  8.1363237
98.4  50.912977  8.136468
98.5  50.245806  8.1366118
98.6  51.586526  8.1367549
98.7  52.395454  8.1368975
98.8  52.915067  8.1370395
98.9  61.309629  8.137181
99  76.080251  8.1373219
99.1  71.4867  8.1374622
99.2  65.382995  8.1376019
99.3  61.62786  8.137741
99.4  78.818032  8.1378796
99.5  74.344536  8.1380177
99.6  60.156166  8.1381551
99.7  58.395976  8.138292
99.8  51.440808  8.1384284
99.9  57.911198  8.1385641
100  58.625319  8.1386994

