# Created by:        SpecsLab Prodigy, Version 4.84.1-r101483 
#
# XY-Serializer Export Settings:
#   Comment Prefix:           #
#   Output Meta Data:         yes
#   Energy Axis:              Kinetic Energy
#   Count Rate:               Counts per Second
#   Separate Scan Data:       no
#   Separate Channel Data:    no
#   External Channel Data:    yes
#   Transmission Function:    yes
#   Error Bar:                no
#   Operation Results:        yes
#   Time Zone Format:         UTC
#
# Group:                        L-serine pH 7 500 mM
#
# Region:                       O 1s 200
# Spectrum ID:                  615
# Acquisition Date:             03/12/26 05:33:39 UTC
# Analysis Method:              XPS
# Analyzer:                     Phoibos
# Analyzer Lens:                LargeArea:3.5kV
# Analyzer Slit:                5:7x20\B:open
# Scan Mode:                    FixedAnalyzerTransmission
# Curves/Scan:                  1
# Values/Curve:                 151
# Dwell Time:                   0.1
# Excitation Energy:            730
# Kinetic Energy:               190
# Pass Energy:                  10
# Bias Voltage:                 220
# Detector Voltage:             1920
# Eff. Workfunction:            0
# Source:                       Monochromator
# Comment:                      

# Cycle: 0
#
# Number of Scans: 3

# Cycle: 0, Curve: 0
#
# Acquisition Date:             03/12/26 05:33:39 UTC
# ColumnLabels:                 energy counts/s transmission
#
190  591.71962  8.1321036
190.1  558.13841  8.132017
190.2  529.28353  8.1319304
190.3  573.4828  8.1318436
190.4  562.39148  8.1317568
190.5  626.94631  8.1316698
190.6  595.70023  8.1315828
190.7  569.88574  8.1314957
190.8  546.49961  8.1314085
190.9  525.80591  8.1313212
191  530.54745  8.1312338
191.1  495.48539  8.1311463
191.2  531.1729  8.1310587
191.3  508.04913  8.1309711
191.4  600.41863  8.1308833
191.5  577.38558  8.1307955
191.6  593.45658  8.1307075
191.7  608.94868  8.1306195
191.8  570.04245  8.1305313
191.9  572.72171  8.1304431
192  586.03091  8.1303548
192.1  618.94668  8.1302664
192.2  641.88397  8.1301779
192.3  566.30631  8.1300893
192.4  560.28072  8.1300006
192.5  606.89251  8.1299119
192.6  616.40347  8.129823
192.7  613.57345  8.1297341
192.8  603.7709  8.129645
192.9  684.80543  8.1295559
193  714.04739  8.1294667
193.1  627.95778  8.1293774
193.2  653.40879  8.129288
193.3  676.96765  8.1291985
193.4  666.03933  8.1291089
193.5  703.71612  8.1290192
193.6  747.18872  8.1289295
193.7  750.35433  8.1288396
193.8  758.37333  8.1287497
193.9  756.91565  8.1286597
194  846.6094  8.1285696
194.1  838.86249  8.1284794
194.2  949.03414  8.1283891
194.3  1042.5048  8.1282987
194.4  1099.9634  8.1282082
194.5  1300.1408  8.1281177
194.6  1662.5357  8.1280271
194.7  2074.5191  8.1279363
194.8  2815.4174  8.1278455
194.9  3966.9263  8.1277546
195  5738.0529  8.1276636
195.1  8314.4895  8.1275726
195.2  11287.817  8.1274814
195.3  14515.902  8.1273902
195.4  16670.525  8.1272988
195.5  16641.011  8.1272074
195.6  15365.269  8.1271159
195.7  12584.266  8.1270243
195.8  9077.8619  8.1269326
195.9  6274.7117  8.1268409
196  4357.2589  8.126749
196.1  3675.082  8.1266571
196.2  3530.1818  8.1265651
196.3  3748.9871  8.126473
196.4  4243.6534  8.1263808
196.5  4995.4432  8.1262885
196.6  5850.2481  8.1261962
196.7  6592.547  8.1261037
196.8  7278.7968  8.1260112
196.9  8278.7317  8.1259186
197  9371.1044  8.1258259
197.1  10174.817  8.1257331
197.2  10980.455  8.1256403
197.3  11560.161  8.1255473
197.4  11575.395  8.1254543
197.5  11820.35  8.1253612
197.6  11770.037  8.125268
197.7  11249.382  8.1251747
197.8  10823.399  8.1250813
197.9  9880.6623  8.1249879
198  9280.9614  8.1248944
198.1  8249.2154  8.1248008
198.2  6976.5505  8.1247071
198.3  6234.5414  8.1246133
198.4  5220.8557  8.1245194
198.5  4556.9912  8.1244255
198.6  3706.4342  8.1243315
198.7  2941.0495  8.1242374
198.8  2569.7853  8.1241432
198.9  2255.5899  8.1240489
199  1990.1797  8.1239546
199.1  1686.5777  8.1238602
199.2  1681.9091  8.1237657
199.3  1500.2323  8.1236711
199.4  1299.7751  8.1235764
199.5  1231.1727  8.1234817
199.6  1241.4258  8.1233868
199.7  1115.3109  8.1232919
199.8  1072.6898  8.1231969
199.9  1048.5069  8.1231019
200  1017.2375  8.1230067
200.1  973.2345  8.1229115
200.2  911.2942  8.1228162
200.3  874.98947  8.1227208
200.4  949.42167  8.1226253
200.5  973.78998  8.1225298
200.6  1009.4612  8.1224341
200.7  887.31442  8.1223384
200.8  936.80186  8.1222426
200.9  973.45689  8.1221468
201  931.82784  8.1220508
201.1  897.26792  8.1219548
201.2  962.68162  8.1218587
201.3  955.20761  8.1217625
201.4  890.96967  8.1216663
201.5  849.53471  8.1215699
201.6  913.31027  8.1214735
201.7  922.54145  8.121377
201.8  835.40248  8.1212805
201.9  873.19221  8.1211838
202  950.55085  8.1210871
202.1  921.87981  8.1209903
202.2  943.18406  8.1208934
202.3  896.64912  8.1207964
202.4  901.71623  8.1206994
202.5  898.29198  8.1206023
202.6  925.36084  8.1205051
202.7  939.61639  8.1204079
202.8  889.45069  8.1203105
202.9  882.39533  8.1202131
203  929.37479  8.1201156
203.1  985.40741  8.1200181
203.2  930.99043  8.1199204
203.3  979.57624  8.1198227
203.4  999.74828  8.1197249
203.5  924.33609  8.119627
203.6  934.27137  8.1195291
203.7  1023.3049  8.1194311
203.8  1027.5014  8.119333
203.9  1033.1553  8.1192348
204  1012.6498  8.1191366
204.1  1061.7242  8.1190382
204.2  992.96956  8.1189398
204.3  965.62778  8.1188414
204.4  1034.1816  8.1187428
204.5  1026.1076  8.1186442
204.6  1010.8828  8.1185455
204.7  886.07832  8.1184468
204.8  900.92342  8.1183479
204.9  1086.6168  8.118249
205  989.00938  8.11815

