# Created by:        SpecsLab Prodigy, Version 4.84.1-r101483 
#
# XY-Serializer Export Settings:
#   Comment Prefix:           #
#   Output Meta Data:         yes
#   Energy Axis:              Kinetic Energy
#   Count Rate:               Counts per Second
#   Separate Scan Data:       no
#   Separate Channel Data:    no
#   External Channel Data:    yes
#   Transmission Function:    yes
#   Error Bar:                no
#   Operation Results:        yes
#   Time Zone Format:         UTC
#
# Group:                        L-serine pH 7 500 mM
#
# Region:                       N 1s 70
# Spectrum ID:                  674
# Acquisition Date:             03/12/26 13:52:13 UTC
# Analysis Method:              XPS
# Analyzer:                     Phoibos
# Analyzer Lens:                LargeArea:3.5kV
# Analyzer Slit:                5:7x20\B:open
# Scan Mode:                    FixedAnalyzerTransmission
# Curves/Scan:                  1
# Values/Curve:                 301
# Dwell Time:                   0.1
# Excitation Energy:            480
# Kinetic Energy:               60
# Pass Energy:                  10
# Bias Voltage:                 220
# Detector Voltage:             1920
# Eff. Workfunction:            0
# Source:                       Monochromator
# Comment:                      

# Cycle: 0
#
# Number of Scans: 20

# Cycle: 0, Curve: 0
#
# Acquisition Date:             03/12/26 13:52:13 UTC
# ColumnLabels:                 energy counts/s transmission
#
60  34.631121  8.018195
60.1  29.758035  8.0187437
60.2  31.183261  8.0192905
60.3  27.390813  8.0198354
60.4  30.007064  8.0203785
60.5  35.951226  8.0209198
60.6  32.702001  8.0214592
60.7  34.934323  8.0219969
60.8  27.122547  8.0225327
60.9  34.009776  8.0230667
61  34.297693  8.023599
61.1  30.875864  8.0241294
61.2  34.672216  8.0246581
61.3  34.914098  8.025185
61.4  27.148787  8.0257101
61.5  28.468984  8.0262334
61.6  34.631776  8.026755
61.7  33.301939  8.0272749
61.8  33.255725  8.027793
61.9  34.083238  8.0283094
62  33.1271  8.028824
62.1  37.350656  8.0293369
62.2  32.404353  8.0298481
62.3  32.198532  8.0303576
62.4  32.746621  8.0308653
62.5  34.611342  8.0313714
62.6  38.66626  8.0318758
62.7  30.178279  8.0323785
62.8  31.720048  8.0328795
62.9  33.446106  8.0333789
63  27.156281  8.0338765
63.1  33.664381  8.0343725
63.2  35.717875  8.0348669
63.3  34.181595  8.0353596
63.4  27.838867  8.0358506
63.5  24.751819  8.03634
63.6  33.364851  8.0368278
63.7  33.460193  8.037314
63.8  33.493635  8.0377985
63.9  32.780219  8.0382814
64  32.028288  8.0387627
64.1  28.570113  8.0392424
64.2  31.949569  8.0397205
64.3  30.631057  8.040197
64.4  33.911368  8.0406719
64.5  28.320353  8.0411453
64.6  26.999932  8.041617
64.7  33.761625  8.0420872
64.8  34.726194  8.0425558
64.9  31.840819  8.0430229
65  31.032309  8.0434884
65.1  29.302771  8.0439524
65.2  32.914848  8.0444148
65.3  34.633867  8.0448757
65.4  31.075041  8.045335
65.5  30.200959  8.0457928
65.6  32.933101  8.0462491
65.7  31.601284  8.0467039
65.8  33.685377  8.0471572
65.9  30.814062  8.0476089
66  31.36523  8.0480592
66.1  28.298622  8.0485079
66.2  33.716363  8.0489552
66.3  36.426678  8.049401
66.4  30.759018  8.0498453
66.5  25.541926  8.0502881
66.6  27.111808  8.0507295
66.7  30.062791  8.0511694
66.8  27.465164  8.0516078
66.9  31.619419  8.0520448
67  36.430504  8.0524803
67.1  31.389878  8.0529144
67.2  36.364809  8.053347
67.3  33.48779  8.0537782
67.4  32.726549  8.054208
67.5  31.877013  8.0546364
67.6  35.022483  8.0550633
67.7  32.086266  8.0554888
67.8  34.083346  8.0559129
67.9  37.992021  8.0563356
68  32.080151  8.0567569
68.1  30.853431  8.0571768
68.2  31.311598  8.0575953
68.3  34.049342  8.0580124
68.4  31.910726  8.0584281
68.5  37.490432  8.0588425
68.6  32.614133  8.0592554
68.7  26.988795  8.059667
68.8  34.96118  8.0600773
68.9  37.323102  8.0604862
69  28.464402  8.0608937
69.1  29.16514  8.0612999
69.2  40.971723  8.0617047
69.3  32.430727  8.0621082
69.4  31.391522  8.0625103
69.5  31.887359  8.0629112
69.6  33.911661  8.0633107
69.7  33.929237  8.0637088
69.8  30.624489  8.0641057
69.9  35.089791  8.0645012
70  33.284297  8.0648954
70.1  31.143573  8.0652883
70.2  39.888675  8.0656799
70.3  32.873528  8.0660702
70.4  31.32196  8.0664592
70.5  35.396574  8.066847
70.6  32.565927  8.0672334
70.7  35.495418  8.0676186
70.8  31.727953  8.0680024
70.9  33.028875  8.0683851
71  33.499197  8.0687664
71.1  29.817305  8.0691465
71.2  28.852549  8.0695253
71.3  31.71192  8.0699028
71.4  35.429789  8.0702791
71.5  35.652404  8.0706542
71.6  32.100587  8.071028
71.7  31.65932  8.0714006
71.8  34.632077  8.0717719
71.9  35.49317  8.072142
72  34.708667  8.0725109
72.1  33.118885  8.0728785
72.2  26.609911  8.0732449
72.3  39.627065  8.0736102
72.4  39.115878  8.0739742
72.5  31.727798  8.0743369
72.6  28.410616  8.0746985
72.7  26.410758  8.0750589
72.8  30.559626  8.0754181
72.9  34.016076  8.0757761
73  30.887449  8.0761329
73.1  29.877091  8.0764885
73.2  43.186904  8.0768429
73.3  42.032796  8.0771962
73.4  33.94387  8.0775483
73.5  31.942531  8.0778992
73.6  33.132698  8.0782489
73.7  27.367785  8.0785975
73.8  33.690751  8.0789449
73.9  34.571478  8.0792912
74  34.270954  8.0796363
74.1  31.169086  8.0799803
74.2  37.601897  8.0803231
74.3  38.864848  8.0806647
74.4  35.371801  8.0810053
74.5  29.789879  8.0813447
74.6  38.81198  8.0816829
74.7  32.088756  8.0820201
74.8  33.043538  8.0823561
74.9  38.742529  8.082691
75  33.413814  8.0830248
75.1  39.110234  8.0833575
75.2  34.827835  8.083689
75.3  34.309352  8.0840195
75.4  37.566315  8.0843488
75.5  32.382385  8.0846771
75.6  33.40664  8.0850042
75.7  35.250662  8.0853303
75.8  32.572778  8.0856552
75.9  35.662779  8.0859791
76  40.328286  8.0863019
76.1  30.061364  8.0866236
76.2  26.000696  8.0869443
76.3  43.432779  8.0872639
76.4  38.705785  8.0875824
76.5  33.538066  8.0878998
76.6  36.793689  8.0882162
76.7  31.54153  8.0885315
76.8  37.351507  8.0888457
76.9  42.349302  8.0891589
77  36.237651  8.0894711
77.1  31.958117  8.0897822
77.2  29.786399  8.0900923
77.3  37.260715  8.0904013
77.4  38.154876  8.0907093
77.5  34.493613  8.0910162
77.6  37.847646  8.0913221
77.7  40.929213  8.091627
77.8  34.193691  8.0919309
77.9  35.750854  8.0922337
78  40.510524  8.0925355
78.1  36.562238  8.0928364
78.2  41.722961  8.0931362
78.3  42.746055  8.0934349
78.4  42.028553  8.0937327
78.5  54.319378  8.0940295
78.6  47.120069  8.0943253
78.7  48.201343  8.0946201
78.8  49.377353  8.0949138
78.9  52.233389  8.0952066
79  52.32465  8.0954984
79.1  50.010892  8.0957893
79.2  45.210933  8.0960791
79.3  52.5952  8.0963679
79.4  38.691348  8.0966558
79.5  43.803726  8.0969427
79.6  44.622288  8.0972287
79.7  44.250441  8.0975136
79.8  42.137093  8.0977976
79.9  38.483916  8.0980807
80  42.242089  8.0983627
80.1  40.015525  8.0986439
80.2  40.294709  8.098924
80.3  38.337075  8.0992033
80.4  34.735703  8.0994815
80.5  32.361074  8.0997588
80.6  38.438478  8.1000352
80.7  35.454873  8.1003107
80.8  38.690948  8.1005852
80.9  32.250897  8.1008587
81  29.32554  8.1011314
81.1  33.674667  8.1014031
81.2  40.618337  8.1016739
81.3  38.895282  8.1019437
81.4  37.187067  8.1022127
81.5  38.641057  8.1024807
81.6  44.698823  8.1027478
81.7  41.265803  8.103014
81.8  34.766408  8.1032793
81.9  41.693536  8.1035436
82  37.814723  8.1038071
82.1  39.908364  8.1040697
82.2  37.67209  8.1043313
82.3  36.571632  8.1045921
82.4  36.446534  8.104852
82.5  36.013138  8.1051109
82.6  36.257329  8.105369
82.7  33.937422  8.1056262
82.8  36.2785  8.1058826
82.9  40.474336  8.106138
83  38.197015  8.1063926
83.1  41.787756  8.1066463
83.2  37.359926  8.1068991
83.3  38.486274  8.107151
83.4  39.241897  8.1074021
83.5  36.853678  8.1076523
83.6  40.148752  8.1079016
83.7  40.584184  8.1081501
83.8  35.89901  8.1083977
83.9  32.957052  8.1086445
84  32.338319  8.1088904
84.1  34.61965  8.1091354
84.2  43.223087  8.1093796
84.3  49.707555  8.109623
84.4  41.914879  8.1098655
84.5  38.335762  8.1101072
84.6  34.716921  8.110348
84.7  38.997304  8.110588
84.8  40.110141  8.1108272
84.9  37.351643  8.1110655
85  40.227083  8.111303
85.1  34.538161  8.1115396
85.2  34.191644  8.1117755
85.3  43.60347  8.1120105
85.4  43.082472  8.1122447
85.5  40.854493  8.1124781
85.6  40.876289  8.1127106
85.7  39.043243  8.1129424
85.8  40.71987  8.1131733
85.9  42.838866  8.1134034
86  36.528886  8.1136328
86.1  41.908693  8.1138613
86.2  44.540495  8.114089
86.3  42.111642  8.1143159
86.4  33.322423  8.114542
86.5  36.524317  8.1147673
86.6  42.987417  8.1149918
86.7  38.659063  8.1152155
86.8  41.912367  8.1154385
86.9  42.621409  8.1156606
87  41.605876  8.115882
87.1  42.777777  8.1161026
87.2  43.288718  8.1163224
87.3  37.160678  8.1165414
87.4  39.440166  8.1167596
87.5  46.574883  8.1169771
87.6  40.206383  8.1171938
87.7  43.366312  8.1174097
87.8  44.822747  8.1176249
87.9  48.716135  8.1178393
88  43.505456  8.1180529
88.1  43.65399  8.1182658
88.2  38.879064  8.1184779
88.3  38.50681  8.1186892
88.4  42.157885  8.1188998
88.5  38.996747  8.1191097
88.6  46.065436  8.1193187
88.7  40.691476  8.1195271
88.8  39.828754  8.1197347
88.9  39.76045  8.1199415
89  51.130865  8.1201476
89.1  40.451421  8.120353
89.2  38.879194  8.1205576
89.3  37.093406  8.1207615
89.4  39.238867  8.1209646
89.5  41.614787  8.121167
89.6  39.144713  8.1213687
89.7  40.751324  8.1215697
89.8  41.662196  8.1217699
89.9  42.290146  8.1219694
90  41.652539  8.1221682

