# Created by:        SpecsLab Prodigy, Version 4.84.1-r101483 
#
# XY-Serializer Export Settings:
#   Comment Prefix:           #
#   Output Meta Data:         yes
#   Energy Axis:              Kinetic Energy
#   Count Rate:               Counts per Second
#   Separate Scan Data:       no
#   Separate Channel Data:    no
#   External Channel Data:    yes
#   Transmission Function:    yes
#   Error Bar:                no
#   Operation Results:        yes
#   Time Zone Format:         UTC
#
# Group:                        L-serine pH 7 500 mM
#
# Region:                       Survey
# Spectrum ID:                  606
# Acquisition Date:             03/12/26 04:46:56 UTC
# Analysis Method:              XPS
# Analyzer:                     Phoibos
# Analyzer Lens:                LargeArea:3.5kV
# Analyzer Slit:                5:7x20\B:open
# Scan Mode:                    FixedAnalyzerTransmission
# Curves/Scan:                  1
# Values/Curve:                 1611
# Dwell Time:                   0.1
# Excitation Energy:            900
# Kinetic Energy:               100
# Pass Energy:                  20
# Bias Voltage:                 220
# Detector Voltage:             1920
# Eff. Workfunction:            0
# Source:                       Monochromator
# Comment:                      

# Cycle: 0
#
# Number of Scans: 1

# Cycle: 0, Curve: 0
#
# Acquisition Date:             03/12/26 04:46:56 UTC
# ColumnLabels:                 energy counts/s transmission
#
100  27.51616  16.070513
100.5  19.35296  16.074422
101  10.6198  16.078297
101.5  14.74916  16.082137
102  38.65058  16.085942
102.5  49.776792  16.089715
103  51.399255  16.093454
103.5  24.959373  16.09716
104  28.69632  16.100833
104.5  22.34732  16.104474
105  6.73672  16.108084
105.5  35.619396  16.111661
106  28.888139  16.115208
106.5  17.201561  16.118723
107  20.113944  16.122208
107.5  18.960532  16.125663
108  50.045668  16.129088
108.5  19.17076  16.132483
109  0.0682552  16.135848
109.5  20.578801  16.139185
110  18.445824  16.142493
110.5  15.724536  16.145772
111  16.581784  16.149023
111.5  19.82662  16.152246
112  26.87326  16.155442
112.5  23.30012  16.15861
113  15.387372  16.161751
113.5  8.049268  16.164865
114  7.69368  16.167953
114.5  12.953376  16.171014
115  24.517104  16.17405
115.5  8.1857752  16.177059
116  44.798956  16.180043
116.5  50.857269  16.183002
117  19.19804  16.185935
117.5  7.69368  16.188844
118  18.58236  16.191728
118.5  17.53876  16.194588
119  39.229404  16.197424
119.5  31.791636  16.200236
120  45.441896  16.203024
120.5  35.889064  16.205788
121  29.161136  16.20853
121.5  40.000024  16.211248
122  35.164172  16.213944
122.5  28.892268  16.216617
123  49.621812  16.219268
123.5  16.536108  16.221896
124  25.25968  16.224503
124.5  19.48944  16.227087
125  35.9662  16.22965
125.5  29.197988  16.232192
126  12.903532  16.234713
126.5  16.78656  16.237212
127  19.75836  16.239691
127.5  37.1606  16.242149
128  19.04724  16.244587
128.5  25.519716  16.247004
129  13.90148  16.249401
129.5  33.63724  16.251778
130  2.789604  16.254136
130.5  6.39  16.256474
131  23.63728  16.258793
131.5  30.02252  16.261092
132  17.09236  16.263373
132.5  18.40896  16.265634
133  48.3182  16.267877
133.5  43.919876  16.270101
134  18.842444  16.272307
134.5  27.83016  16.274494
135  23.3274  16.276664
135.5  26.51768  16.278815
136  41.490055  16.280949
136.5  38.373425  16.283065
137  13.04004  16.285163
137.5  51.207452  16.287244
138  47.488868  16.289308
138.5  39.11128  16.291355
139  26.29452  16.293385
139.5  22.83944  16.295398
140  48.299732  16.297395
140.5  44.448828  16.299375
141  3.09948  16.301339
141.5  17.278696  16.303286
142  18.801424  16.305217
142.5  45.482852  16.307133
143  48.158548  16.309032
143.5  28.24104  16.310916
144  16.78656  16.312784
144.5  33.263291  16.314637
145  28.008269  16.316474
145.5  70.487392  16.318296
146  47.247248  16.320103
146.5  32.81688  16.321896
147  40.32832  16.323673
147.5  37.387952  16.325435
148  58.47312  16.327183
148.5  43.172408  16.328916
149  55.18672  16.330635
149.5  59.19804  16.33234
150  39.11128  16.334031
150.5  48.6096  16.335707
151  65.391487  16.337369
151.5  78.377613  16.339018
152  56.869116  16.340653
152.5  24.672084  16.342274
153  12.06466  16.343882
153.5  54.507516  16.345476
154  44.566964  16.347057
154.5  44.61264  16.348625
155  45.205132  16.350179
155.5  10.018468  16.351721
156  12.5752  16.35325
156.5  22.85784  16.354766
157  16.26228  16.356269
157.5  58.1996  16.357759
158  36.166735  16.359237
158.5  88.167349  16.360703
159  65.497156  16.362156
159.5  58.240556  16.363596
160  53.637236  16.365025
160.5  50.952808  16.366442
161  44.393572  16.367846
161.5  60.619784  16.369239
162  51.221724  16.37062
162.5  62.50228  16.371989
163  33.50072  16.373347
163.5  82.40596  16.374693
164  34.93212  16.376027
164.5  43.773767  16.37735
165  67.743537  16.378662
165.5  50.169256  16.379962
166  45.8112  16.381252
166.5  42.52952  16.38253
167  57.80764  16.383797
167.5  39.08404  16.385054
168  40.843  16.386299
168.5  59.475736  16.387534
169  69.516708  16.388758
169.5  87.183128  16.389972
170  96.253468  16.391175
170.5  74.85432  16.392367
171  74.31644  16.393549
171.5  35.697276  16.394721
172  71.358216  16.395883
172.5  72.328868  16.397034
173  82.66196  16.398175
173.5  114.64398  16.399306
174  91.655164  16.400428
174.5  112.68861  16.401539
175  89.303128  16.402641
175.5  64.83584  16.403733
176  151.37992  16.404815
176.5  145.56626  16.405887
177  134.59834  16.40695
177.5  147.84862  16.408004
178  138.32305  16.409048
178.5  70.715371  16.410082
179  167.21921  16.411108
179.5  173.91988  16.412124
180  169.27988  16.413131
180.5  171.0121  16.414129
181  199.24319  16.415117
181.5  156.82267  16.416097
182  184.06186  16.417068
182.5  212.00041  16.41803
183  261.59513  16.418983
183.5  198.45076  16.419928
184  185.02686  16.420863
184.5  292.60665  16.421791
185  202.43061  16.422709
185.5  207.79329  16.423619
186  193.19497  16.42452
186.5  230.07248  16.425414
187  229.198  16.426298
187.5  295.39199  16.427175
188  240.88395  16.428043
188.5  420.6504  16.428903
189  305.90398  16.429755
189.5  298.7373  16.430598
190  368.49489  16.431434
190.5  437.17849  16.432262
191  431.8544  16.433082
191.5  407.71347  16.433894
192  480.82782  16.434698
192.5  420.97135  16.435494
193  464.20241  16.436282
193.5  516.80842  16.437063
194  477.45257  16.437837
194.5  571.80489  16.438602
195  491.18065  16.43936
195.5  504.00169  16.440111
196  534.0702  16.440854
196.5  593.59551  16.44159
197  631.75422  16.442318
197.5  775.69672  16.443039
198  826.25369  16.443753
198.5  709.31147  16.44446
199  711.7821  16.445159
199.5  724.50269  16.445851
200  826.88212  16.446537
200.5  864.18729  16.447215
201  935.52963  16.447886
201.5  992.01257  16.44855
202  1164.0562  16.449208
202.5  1292.1098  16.449858
203  1067.8692  16.450502
203.5  1131.5739  16.451139
204  1229.4867  16.451769
204.5  1251.6613  16.452392
205  1321.9694  16.453009
205.5  1277.7847  16.453619
206  1388.472  16.454223
206.5  1453.2959  16.45482
207  1333.1195  16.45541
207.5  1335.8496  16.455995
208  1408.768  16.456572
208.5  1461.7373  16.457144
209  1409.405  16.457709
209.5  1644.1295  16.458267
210  1712.1624  16.45882
210.5  1548.9639  16.459366
211  1948.3741  16.459906
211.5  1712.4287  16.460439
212  1716.7315  16.460967
212.5  2017.4044  16.461489
213  2049.8855  16.462004
213.5  1923.2372  16.462514
214  2037.1472  16.463017
214.5  1908.4268  16.463515
215  2018.5151  16.464007
215.5  2138.2105  16.464493
216  2288.3066  16.464973
216.5  2365.4088  16.465447
217  2323.161  16.465915
217.5  2344.1942  16.466378
218  2129.1363  16.466835
218.5  2186.6883  16.467287
219  2356.4206  16.467732
219.5  2328.4974  16.468172
220  2440.6265  16.468607
220.5  2605.1473  16.469036
221  2541.475  16.469459
221.5  2508.0365  16.469877
222  2731.1511  16.47029
222.5  2887.7391  16.470697
223  2884.1976  16.471099
223.5  2690.3054  16.471495
224  2864.7728  16.471887
224.5  2802.5083  16.472272
225  2866.1602  16.472653
225.5  2954.1557  16.473028
226  3095.6027  16.473399
226.5  3253.5256  16.473764
227  3150.7029  16.474123
227.5  3311.3783  16.474478
228  3280.9467  16.474828
228.5  3212.359  16.475172
229  3367.2265  16.475512
229.5  3226.2092  16.475847
230  3157.8155  16.476176
230.5  3386.1546  16.476501
231  3660.6755  16.476821
231.5  3303.1971  16.477136
232  3555.379  16.477446
232.5  3746.5292  16.477751
233  3535.2449  16.478051
233.5  3775.4272  16.478347
234  3810.5389  16.478638
234.5  3706.2816  16.478924
235  4076.8295  16.479205
235.5  3648.8147  16.479482
236  3785.1393  16.479754
236.5  3922.5074  16.480021
237  4029.8579  16.480284
237.5  4047.286  16.480543
238  4126.3707  16.480796
238.5  4566.6327  16.481046
239  4546.7804  16.48129
239.5  4569.6557  16.481531
240  4500.1988  16.481766
240.5  4268.5376  16.481998
241  4287.5323  16.482225
241.5  4725.2822  16.482448
242  4797.6689  16.482666
242.5  4730.746  16.48288
243  4640.3596  16.483089
243.5  4695.4522  16.483295
244  4850.0395  16.483496
244.5  4897.0265  16.483693
245  4995.8872  16.483885
245.5  5118.2423  16.484074
246  5621.1704  16.484258
246.5  5449.4135  16.484438
247  5399.288  16.484614
247.5  5529.6519  16.484786
248  5380.9787  16.484954
248.5  5077.4635  16.485118
249  5267.8926  16.485277
249.5  5472.0585  16.485433
250  5777.1078  16.485585
250.5  5715.1909  16.485733
251  5459.6407  16.485876
251.5  5388.7246  16.486016
252  5419.0352  16.486152
252.5  5573.2422  16.486284
253  5505.5231  16.486412
253.5  5729.6818  16.486537
254  6001.4523  16.486657
254.5  6084.0907  16.486774
255  6077.7439  16.486887
255.5  6218.5717  16.486996
256  6134.2248  16.487101
256.5  6552.7637  16.487203
257  6093.5793  16.487301
257.5  6214.0789  16.487395
258  6303.4829  16.487486
258.5  5956.6405  16.487573
259  6214.9714  16.487656
259.5  6799.8734  16.487736
260  6560.2264  16.487812
260.5  6622.045  16.487884
261  6661.9284  16.487953
261.5  6905.2545  16.488018
262  6386.63  16.48808
262.5  6561.813  16.488139
263  6762.856  16.488193
263.5  7101.9934  16.488245
264  7572.2828  16.488293
264.5  7047.2011  16.488337
265  7169.1105  16.488378
265.5  6807.4707  16.488416
266  7198.5299  16.48845
266.5  7298.7944  16.488481
267  7260.6205  16.488509
267.5  7499.071  16.488533
268  7449.0092  16.488554
268.5  7423.0942  16.488572
269  7239.0475  16.488586
269.5  7528.0878  16.488597
270  7764.5494  16.488605
270.5  7895.5321  16.488609
271  7694.2532  16.488611
271.5  7642.2459  16.488609
272  7522.245  16.488604
272.5  7750.3793  16.488596
273  8035.0331  16.488584
273.5  7806.4979  16.48857
274  7822.0611  16.488552
274.5  7881.3194  16.488532
275  7993.2932  16.488508
275.5  7893.8893  16.488481
276  7688.7378  16.488451
276.5  8049.367  16.488418
277  7828.0526  16.488382
277.5  8109.58  16.488343
278  8105.4057  16.488301
278.5  7949.3579  16.488256
279  8500.5056  16.488208
279.5  8186.1329  16.488157
280  7981.1818  16.488103
280.5  8255.1643  16.488046
281  8644.0344  16.487987
281.5  8836.3819  16.487924
282  8511.2738  16.487858
282.5  8596.7554  16.48779
283  8683.7822  16.487719
283.5  9023.423  16.487645
284  9078.2197  16.487568
284.5  8835.7008  16.487488
285  8716.6204  16.487406
285.5  8693.0347  16.48732
286  9123.6316  16.487232
286.5  9148.3429  16.487141
287  9082.5507  16.487048
287.5  8984.788  16.486951
288  9107.7256  16.486852
288.5  9403.9591  16.486751
289  9003.2261  16.486646
289.5  8925.3608  16.486539
290  9452.285  16.486429
290.5  8672.7354  16.486317
291  9387.1575  16.486202
291.5  9848.008  16.486084
292  9460.2179  16.485963
292.5  9434.8212  16.48584
293  9559.7617  16.485715
293.5  9663.9309  16.485587
294  9525.1645  16.485456
294.5  9198.1577  16.485323
295  9164.1546  16.485187
295.5  9520.7207  16.485049
296  10195.338  16.484908
296.5  9863.0326  16.484764
297  9933.4746  16.484618
297.5  10224.506  16.48447
298  10273.445  16.484319
298.5  10381.755  16.484166
299  10334.738  16.48401
299.5  10379.453  16.483852
300  10437.888  16.483691
300.5  10165.839  16.483528
301  10767.853  16.483363
301.5  10361.563  16.483195
302  10291.981  16.483025
302.5  10690.096  16.482852
303  10534.411  16.482677
303.5  10774.775  16.4825
304  11020.698  16.482321
304.5  10641.545  16.482139
305  10889.344  16.481954
305.5  10551.275  16.481768
306  10746.029  16.481579
306.5  11039.016  16.481388
307  10632.794  16.481194
307.5  10937.498  16.480999
308  11005.003  16.480801
308.5  10689.954  16.480601
309  10925.899  16.480398
309.5  11001.639  16.480194
310  10812.015  16.479987
310.5  10842.253  16.479778
311  11486.37  16.479566
311.5  11714.391  16.479353
312  11354.134  16.479137
312.5  11356.094  16.47892
313  11784.155  16.4787
313.5  11565.587  16.478478
314  11961.774  16.478254
314.5  11924.222  16.478027
315  11561.299  16.477799
315.5  11624.861  16.477568
316  11738.831  16.477336
316.5  12122.658  16.477101
317  12161.337  16.476864
317.5  12135.195  16.476626
318  11908.402  16.476385
318.5  11734.292  16.476142
319  12283.122  16.475897
319.5  12092.7  16.47565
320  12266.997  16.475401
320.5  12438.795  16.47515
321  11766.443  16.474897
321.5  12097.201  16.474642
322  12015.744  16.474385
322.5  12220.881  16.474126
323  11921.867  16.473865
323.5  12614.121  16.473602
324  12286.07  16.473338
324.5  12260.792  16.473071
325  12331.484  16.472802
325.5  12427.775  16.472532
326  12889.579  16.472259
326.5  13178.861  16.471985
327  13303.168  16.471709
327.5  12931.904  16.47143
328  12390.501  16.47115
328.5  13219.851  16.470868
329  13122.247  16.470585
329.5  13077.631  16.470299
330  12548.105  16.470012
330.5  12797.938  16.469722
331  12955.624  16.469431
331.5  13259.835  16.469138
332  12786.019  16.468843
332.5  12231.911  16.468547
333  12619.121  16.468249
333.5  12238.183  16.467948
334  12627.753  16.467647
334.5  12388.823  16.467343
335  12232.142  16.467037
335.5  12743.123  16.46673
336  12749.344  16.466421
336.5  13136.519  16.466111
337  13518.211  16.465798
337.5  13523.555  16.465484
338  13600.165  16.465168
338.5  14394.393  16.464851
339  14062.985  16.464531
339.5  14705.093  16.46421
340  15360.054  16.463888
340.5  15441.124  16.463563
341  16372.433  16.463237
341.5  15896.856  16.46291
342  16812.701  16.46258
342.5  16368.667  16.462249
343  16276.38  16.461917
343.5  15838.335  16.461583
344  16175.286  16.461247
344.5  15544.696  16.460909
345  15655.788  16.46057
345.5  15378.933  16.460229
346  15034.327  16.459887
346.5  14976.343  16.459543
347  15019.454  16.459198
347.5  15198.929  16.458851
348  14597.621  16.458502
348.5  14141.539  16.458152
349  14288.674  16.4578
349.5  14154.301  16.457447
350  13060.052  16.457092
350.5  13202.587  16.456735
351  13135.433  16.456377
351.5  12313.074  16.456018
352  12423.586  16.455657
352.5  12479.35  16.455294
353  12164.997  16.45493
353.5  11919.726  16.454565
354  11462.592  16.454198
354.5  11086.559  16.45383
355  10838.889  16.45346
355.5  10656.104  16.453088
356  10557.924  16.452715
356.5  10350.087  16.452341
357  10132.388  16.451965
357.5  10093.273  16.451588
358  9998.0994  16.451209
358.5  9313.0546  16.450829
359  8868.4152  16.450447
359.5  8496.6115  16.450064
360  7639.5439  16.44968
360.5  7255.6821  16.449294
361  6683.3165  16.448907
361.5  6530.219  16.448518
362  6917.069  16.448128
362.5  7044.927  16.447737
363  7051.944  16.447344
363.5  7518.0401  16.44695
364  9279.2196  16.446554
364.5  20067.345  16.446158
365  56626.888  16.445759
365.5  66016.651  16.44536
366  44712.429  16.444959
366.5  66316.743  16.444556
367  108093.92  16.444153
367.5  120829.17  16.443748
368  83787.761  16.443342
368.5  39419.853  16.442934
369  17805.054  16.442525
369.5  10720.118  16.442115
370  8026.3528  16.441703
370.5  7578.8744  16.441291
371  6863.5632  16.440876
371.5  6604.8812  16.440461
372  6430.6851  16.440044
372.5  6372.1872  16.439626
373  6193.3746  16.439207
373.5  6414.5923  16.438787
374  6071.5873  16.438365
374.5  6250.8939  16.437942
375  6051.4189  16.437518
375.5  6162.8254  16.437092
376  6294.2081  16.436666
376.5  6250.8359  16.436238
377  6383.2887  16.435808
377.5  6111.9006  16.435378
378  5911.1534  16.434946
378.5  6144.8145  16.434514
379  6530.0708  16.43408
379.5  6102.8949  16.433644
380  6318.7297  16.433208
380.5  6408.1646  16.43277
381  6359.6545  16.432332
381.5  6349.165  16.431892
382  6475.7447  16.43145
382.5  6169.5666  16.431008
383  6260.7784  16.430565
383.5  6214.6428  16.43012
384  6194.415  16.429674
384.5  6533.1296  16.429227
385  6367.0746  16.428779
385.5  6459.5397  16.42833
386  6246.4203  16.427879
386.5  6447.5564  16.427428
387  6266.7271  16.426975
387.5  6291.9957  16.426521
388  6607.7255  16.426067
388.5  6565.496  16.425611
389  6881.879  16.425153
389.5  6605.8404  16.424695
390  6104.4953  16.424236
390.5  6491.4221  16.423775
391  6402.4074  16.423314
391.5  6548.0965  16.422851
392  6176.4867  16.422388
392.5  6347.8023  16.421923
393  6631.3172  16.421457
393.5  6408.0918  16.42099
394  6367.7753  16.420522
394.5  6342.1402  16.420053
395  6458.5094  16.419583
395.5  6602.55  16.419112
396  6703.8836  16.41864
396.5  6607.8897  16.418167
397  6887.3751  16.417692
397.5  6552.3924  16.417217
398  6432.8335  16.416741
398.5  6626.469  16.416263
399  6675.2478  16.415785
399.5  6373.5841  16.415306
400  6218.5157  16.414825
400.5  6741.2467  16.414344
401  6206.3647  16.413861
401.5  6516.3402  16.413378
402  6668.1084  16.412894
402.5  6235.7031  16.412408
403  6589.7175  16.411922
403.5  6457.814  16.411434
404  6806.7816  16.410946
404.5  6674.7451  16.410457
405  6606.2478  16.409966
405.5  6887.2689  16.409475
406  6983.7333  16.408983
406.5  6589.4322  16.40849
407  6805.5874  16.407996
407.5  6936.7873  16.407501
408  6870.3298  16.407005
408.5  6719.5302  16.406508
409  6836.5955  16.40601
409.5  6885.5307  16.405511
410  7212.9551  16.405011
410.5  7286.3665  16.40451
411  7117.9413  16.404009
411.5  6754.3461  16.403506
412  6421.3165  16.403002
412.5  6851.3628  16.402498
413  6711.9766  16.401993
413.5  6807.7954  16.401487
414  6911.6048  16.400979
414.5  6909.4374  16.400471
415  6935.5206  16.399962
415.5  7465.1693  16.399453
416  6989.5517  16.398942
416.5  6855.4586  16.39843
417  6980.9938  16.397918
417.5  7082.1823  16.397405
418  7305.9837  16.39689
418.5  7294.0186  16.396375
419  7295.6798  16.395859
419.5  7227.2858  16.395342
420  6998.3248  16.394825
420.5  7107.6499  16.394306
421  6989.1452  16.393787
421.5  6725.5947  16.393267
422  7444.5465  16.392746
422.5  7427.5346  16.392224
423  7600.3792  16.391701
423.5  7419.6745  16.391177
424  7453.03  16.390653
424.5  7072.9087  16.390128
425  7365.0541  16.389602
425.5  7085.9665  16.389075
426  7161.1882  16.388547
426.5  7326.9469  16.388018
427  7567.8904  16.387489
427.5  7649.5688  16.386959
428  7391.7337  16.386428
428.5  7416.3755  16.385896
429  7317.2475  16.385364
429.5  7107.3207  16.38483
430  7003.2033  16.384296
430.5  7365.5338  16.383761
431  7163.636  16.383225
431.5  7650.5851  16.382689
432  7333.1546  16.382152
432.5  7536.6798  16.381614
433  7655.4837  16.381075
433.5  7394.322  16.380535
434  7580.606  16.379995
434.5  7577.9527  16.379454
435  7539.5515  16.378912
435.5  7362.4353  16.378369
436  7761.1395  16.377826
436.5  7557.9052  16.377281
437  7764.9852  16.376736
437.5  7675.072  16.376191
438  7728.7022  16.375644
438.5  7799.4402  16.375097
439  8236.5791  16.374549
439.5  7736.4658  16.374001
440  8201.8889  16.373451
440.5  7971.719  16.372901
441  7893.7738  16.372351
441.5  8150.8095  16.371799
442  8214.9202  16.371247
442.5  7896.7335  16.370694
443  8096.1587  16.37014
443.5  8363.4033  16.369586
444  7689.4704  16.369031
444.5  7905.0812  16.368475
445  7654.8291  16.367918
445.5  7804.7501  16.367361
446  8138.417  16.366803
446.5  8162.0325  16.366245
447  7883.7772  16.365685
447.5  8190.803  16.365125
448  8521.108  16.364565
448.5  7938.9003  16.364003
449  7929.9474  16.363441
449.5  8038.5393  16.362879
450  7942.1605  16.362315
450.5  8168.1269  16.361751
451  8500.0502  16.361187
451.5  8483.8298  16.360621
452  8734.4947  16.360055
452.5  8770.9601  16.359489
453  8446.9929  16.358921
453.5  8360.1513  16.358353
454  8162.9428  16.357785
454.5  8669.8458  16.357215
455  8634.5181  16.356645
455.5  9039.104  16.356075
456  9061.0933  16.355503
456.5  8643.3124  16.354932
457  9026.0423  16.354359
457.5  9044.7202  16.353786
458  8885.3208  16.353212
458.5  9096.9081  16.352638
459  9059.6444  16.352063
459.5  9299.5599  16.351487
460  9206.4959  16.350911
460.5  9075.0407  16.350334
461  8924.1047  16.349756
461.5  9190.5359  16.349178
462  9285.6754  16.348599
462.5  8716.4159  16.34802
463  8908.4104  16.34744
463.5  9215.4922  16.34686
464  9382.8748  16.346278
464.5  9144.5755  16.345697
465  9221.1918  16.345114
465.5  9195.3939  16.344531
466  9570.9725  16.343948
466.5  9311.9281  16.343364
467  9759.5723  16.342779
467.5  9436.7459  16.342193
468  9456.2854  16.341608
468.5  9502.428  16.341021
469  9326.7451  16.340434
469.5  8778.658  16.339846
470  9366.6285  16.339258
470.5  9517.4211  16.338669
471  9118.1553  16.33808
471.5  9939.9701  16.33749
472  10384.498  16.3369
472.5  10456.346  16.336309
473  10731.149  16.335717
473.5  10680.638  16.335125
474  10816.554  16.334532
474.5  10767.259  16.333939
475  10752.32  16.333345
475.5  10683.136  16.332751
476  10610.006  16.332156
476.5  10581.778  16.33156
477  10628.553  16.330964
477.5  10407.074  16.330368
478  10580.034  16.329771
478.5  10483.976  16.329173
479  11016.467  16.328575
479.5  11566.105  16.327976
480  11287.045  16.327377
480.5  11220.534  16.326777
481  11088.911  16.326177
481.5  10469.132  16.325576
482  10068.793  16.324975
482.5  10296.662  16.324373
483  9870.7676  16.323771
483.5  9988.291  16.323168
484  10534.359  16.322564
484.5  10408.798  16.321961
485  10588.716  16.321356
485.5  10139.272  16.320751
486  9862.8581  16.320146
486.5  9537.0372  16.31954
487  8748.5784  16.318934
487.5  9095.6957  16.318327
488  9590.5952  16.317719
488.5  9418.2418  16.317111
489  9207.0283  16.316503
489.5  9458.6122  16.315894
490  10067.36  16.315285
490.5  10578.674  16.314675
491  10853.606  16.314065
491.5  11132.759  16.313454
492  10842.971  16.312842
492.5  10624.539  16.312231
493  10955.644  16.311618
493.5  10753.819  16.311006
494  10588.821  16.310392
494.5  10245.277  16.309779
495  10462.657  16.309165
495.5  11080.436  16.30855
496  12773.917  16.307935
496.5  13878.016  16.307319
497  14277.65  16.306703
497.5  14913.615  16.306087
498  14205.686  16.30547
498.5  12831.115  16.304853
499  12057.601  16.304235
499.5  12020.737  16.303617
500  12038.255  16.302998
500.5  12387.001  16.302379
501  11936.144  16.301759
501.5  12918.59  16.301139
502  12014.047  16.300519
502.5  11835.791  16.299898
503  11691.145  16.299276
503.5  10697.304  16.298654
504  9814.75  16.298032
504.5  10119.777  16.297409
505  9722.3864  16.296786
505.5  9786.491  16.296163
506  8989.7949  16.295539
506.5  8622.5245  16.294914
507  8497.0974  16.29429
507.5  7721.8154  16.293664
508  7452.689  16.293039
508.5  6670.2927  16.292413
509  6281.9204  16.291786
509.5  5597.8819  16.291159
510  5169.6003  16.290532
510.5  4814.6222  16.289904
511  4472.6132  16.289276
511.5  3770.3359  16.288647
512  3243.9185  16.288018
512.5  2747.1477  16.287389
513  2205.2949  16.286759
513.5  1687.9373  16.286129
514  1239.5561  16.285498
514.5  1097.5152  16.284867
515  961.51972  16.284236
515.5  778.33788  16.283604
516  789.1803  16.282972
516.5  751.21471  16.282339
517  774.74664  16.281706
517.5  760.53745  16.281073
518  623.03247  16.280439
518.5  669.12253  16.279805
519  687.66855  16.27917
519.5  693.70925  16.278536
520  570.27415  16.2779
520.5  588.32439  16.277265
521  499.47044  16.276629
521.5  551.70485  16.275992
522  594.52448  16.275355
522.5  590.5811  16.274718
523  516.02004  16.274081
523.5  565.85705  16.273443
524  477.79961  16.272804
524.5  427.12825  16.272166
525  498.19882  16.271527
525.5  547.33333  16.270887
526  520.34272  16.270247
526.5  464.86764  16.269607
527  521.34486  16.268967
527.5  451.34958  16.268326
528  437.74785  16.267685
528.5  433.51404  16.267043
529  463.83778  16.266401
529.5  519.47577  16.265759
530  521.97338  16.265117
530.5  442.45229  16.264474
531  490.0232  16.26383
531.5  440.97064  16.263187
532  445.39156  16.262543
532.5  467.28933  16.261898
533  420.96115  16.261254
533.5  471.38099  16.260608
534  389.58074  16.259963
534.5  445.68822  16.259317
535  386.13494  16.258671
535.5  493.75063  16.258025
536  487.57059  16.257378
536.5  483.9199  16.256731
537  384.61345  16.256084
537.5  376.31218  16.255436
538  569.51128  16.254788
538.5  546.3669  16.25414
539  574.79485  16.253491
539.5  504.39973  16.252842
540  471.39909  16.252193
540.5  479.33729  16.251543
541  690.15095  16.250893
541.5  503.9211  16.250243
542  529.26996  16.249592
542.5  493.96186  16.248941
543  486.98188  16.24829
543.5  528.11326  16.247638
544  471.84712  16.246986
544.5  353.63674  16.246334
545  458.18021  16.245682
545.5  514.80924  16.245029
546  493.64083  16.244376
546.5  533.34637  16.243722
547  370.95433  16.243069
547.5  320.41434  16.242414
548  421.13268  16.24176
548.5  615.22434  16.241106
549  412.68959  16.240451
549.5  406.19876  16.239795
550  486.43018  16.23914
550.5  525.21857  16.238484
551  500.12434  16.237828
551.5  418.14498  16.237171
552  430.1591  16.236515
552.5  530.50549  16.235858
553  560.02197  16.2352
553.5  468.73446  16.234543
554  452.07848  16.233885
554.5  471.59899  16.233227
555  523.78346  16.232568
555.5  437.71174  16.23191
556  538.70038  16.231251
556.5  434.40925  16.230591
557  478.9815  16.229932
557.5  534.39565  16.229272
558  474.06432  16.228612
558.5  481.04432  16.227951
559  481.65873  16.227291
559.5  587.92165  16.22663
560  427.31555  16.225969
560.5  513.26377  16.225307
561  414.47101  16.224645
561.5  437.55716  16.223983
562  509.01067  16.223321
562.5  347.2707  16.222658
563  461.13427  16.221996
563.5  428.45407  16.221333
564  493.47497  16.220669
564.5  467.44147  16.220006
565  481.84657  16.219342
565.5  531.05648  16.218678
566  445.05582  16.218013
566.5  452.37922  16.217348
567  448.75984  16.216684
567.5  456.29939  16.216018
568  416.79047  16.215353
568.5  495.21467  16.214687
569  445.40933  16.214021
569.5  544.84594  16.213355
570  468.45048  16.212689
570.5  502.98952  16.212022
571  481.05401  16.211355
571.5  424.21055  16.210688
572  478.98855  16.210021
572.5  545.86503  16.209353
573  575.11769  16.208685
573.5  509.1224  16.208017
574  371.66478  16.207348
574.5  369.09505  16.20668
575  472.29318  16.206011
575.5  590.4045  16.205342
576  536.19451  16.204672
576.5  519.4533  16.204003
577  475.89848  16.203333
577.5  543.50475  16.202663
578  555.65987  16.201993
578.5  532.31285  16.201322
579  370.97503  16.200651
579.5  480.17326  16.19998
580  469.86685  16.199309
580.5  533.61056  16.198638
581  487.06866  16.197966
581.5  564.9544  16.197294
582  407.59491  16.196622
582.5  463.43101  16.19595
583  510.50023  16.195277
583.5  483.90302  16.194605
584  458.3776  16.193932
584.5  360.13722  16.193258
585  429.00618  16.192585
585.5  462.90281  16.191911
586  367.79054  16.191237
586.5  380.64636  16.190563
587  498.3081  16.189889
587.5  521.43616  16.189215
588  428.27843  16.18854
588.5  410.82782  16.187865
589  486.00316  16.18719
589.5  505.51099  16.186514
590  439.7985  16.185839
590.5  521.73244  16.185163
591  482.49326  16.184487
591.5  423.89322  16.183811
592  420.00871  16.183134
592.5  490.93391  16.182458
593  500.17806  16.181781
593.5  444.67622  16.181104
594  524.14723  16.180427
594.5  467.48896  16.179749
595  441.45414  16.179072
595.5  544.45259  16.178394
596  510.86147  16.177716
596.5  512.36494  16.177038
597  604.86306  16.176359
597.5  538.43339  16.175681
598  475.97534  16.175002
598.5  537.57936  16.174323
599  455.01959  16.173644
599.5  399.77058  16.172965
600  465.79025  16.172285
600.5  391.23486  16.171605
601  340.41009  16.170925
601.5  466.0562  16.170245
602  459.26753  16.169565
602.5  433.77362  16.168885
603  390.24185  16.168204
603.5  462.18223  16.167523
604  392.55264  16.166842
604.5  442.19311  16.166161
605  352.04627  16.165479
605.5  461.66724  16.164798
606  506.30823  16.164116
606.5  384.99222  16.163434
607  350.86132  16.162752
607.5  305.97088  16.16207
608  413.40397  16.161387
608.5  437.0827  16.160705
609  438.01786  16.160022
609.5  467.90267  16.159339
610  503.1356  16.158656
610.5  648.79476  16.157972
611  829.14984  16.157289
611.5  906.69216  16.156605
612  813.15451  16.155921
612.5  912.42731  16.155237
613  1361.2839  16.154553
613.5  1477.731  16.153869
614  823.25909  16.153184
614.5  466.96126  16.152499
615  391.05327  16.151815
615.5  416.52232  16.15113
616  393.52732  16.150444
616.5  389.45829  16.149759
617  383.43184  16.149074
617.5  355.30475  16.148388
618  357.37087  16.147702
618.5  317.35252  16.147016
619  320.41488  16.14633
619.5  392.3007  16.145644
620  314.6866  16.144957
620.5  248.02171  16.144271
621  340.50585  16.143584
621.5  335.6604  16.142897
622  405.30952  16.14221
622.5  337.22465  16.141523
623  377.10141  16.140835
623.5  280.84354  16.140148
624  291.68659  16.13946
624.5  348.06227  16.138772
625  346.78188  16.138084
625.5  454.93556  16.137396
626  349.92878  16.136708
626.5  293.98282  16.136019
627  336.59556  16.135331
627.5  339.36174  16.134642
628  296.90529  16.133953
628.5  333.50886  16.133264
629  355.84884  16.132575
629.5  265.18678  16.131886
630  341.62157  16.131196
630.5  359.33925  16.130507
631  432.0319  16.129817
631.5  429.90588  16.129127
632  376.64877  16.128437
632.5  407.49376  16.127747
633  389.50246  16.127057
633.5  377.30647  16.126367
634  444.07958  16.125676
634.5  390.49287  16.124985
635  338.48259  16.124295
635.5  312.48811  16.123604
636  346.21706  16.122913
636.5  337.4801  16.122221
637  323.26692  16.12153
637.5  386.89634  16.120839
638  318.11341  16.120147
638.5  389.56095  16.119455
639  475.54292  16.118763
639.5  418.10864  16.118071
640  397.23388  16.117379
640.5  409.81223  16.116687
641  418.39673  16.115995
641.5  345.63863  16.115302
642  354.39746  16.11461
642.5  351.88266  16.113917
643  318.07722  16.113224
643.5  290.82025  16.112531
644  314.67145  16.111838
644.5  375.64672  16.111145
645  405.90202  16.110451
645.5  298.54359  16.109758
646  295.39055  16.109064
646.5  394.8904  16.108371
647  417.18728  16.107677
647.5  364.27136  16.106983
648  405.22763  16.106289
648.5  414.03396  16.105595
649  333.24617  16.1049
649.5  297.80764  16.104206
650  298.39059  16.103512
650.5  370.44635  16.102817
651  361.5814  16.102122
651.5  356.4591  16.101427
652  339.5167  16.100732
652.5  306.8869  16.100037
653  312.958  16.099342
653.5  403.62253  16.098647
654  322.70009  16.097951
654.5  282.74379  16.097256
655  328.89628  16.09656
655.5  389.80746  16.095865
656  418.33266  16.095169
656.5  453.83717  16.094473
657  414.50352  16.093777
657.5  382.96775  16.093081
658  323.2681  16.092384
658.5  422.7109  16.091688
659  405.97507  16.090991
659.5  449.10791  16.090295
660  356.72192  16.089598
660.5  399.65458  16.088901
661  293.99288  16.088205
661.5  337.93999  16.087508
662  344.32037  16.086811
662.5  404.04294  16.086113
663  360.39641  16.085416
663.5  337.45776  16.084719
664  235.87059  16.084021
664.5  330.73288  16.083324
665  320.42881  16.082626
665.5  291.23056  16.081928
666  351.60394  16.081231
666.5  412.33718  16.080533
667  384.27194  16.079835
667.5  359.1065  16.079137
668  385.98866  16.078438
668.5  278.07318  16.07774
669  361.87633  16.077042
669.5  379.96452  16.076343
670  346.51836  16.075645
670.5  294.2065  16.074946
671  399.69699  16.074247
671.5  457.68634  16.073548
672  312.21953  16.072849
672.5  380.64751  16.07215
673  352.03739  16.071451
673.5  411.96313  16.070752
674  359.84238  16.070053
674.5  325.60558  16.069353
675  394.52069  16.068654
675.5  354.98668  16.067954
676  348.61976  16.067255
676.5  345.19155  16.066555
677  368.05672  16.065855
677.5  481.28662  16.065156
678  347.71154  16.064456
678.5  413.17162  16.063756
679  401.94266  16.063055
679.5  290.72072  16.062355
680  347.32375  16.061655
680.5  395.82482  16.060955
681  345.69316  16.060254
681.5  365.60637  16.059554
682  297.22962  16.058853
682.5  364.2592  16.058153
683  310.75901  16.057452
683.5  268.80085  16.056751
684  300.90212  16.05605
684.5  370.16383  16.055349
685  384.15192  16.054648
685.5  406.02553  16.053947
686  358.08623  16.053246
686.5  414.29252  16.052545
687  320.7529  16.051843
687.5  389.55199  16.051142
688  447.00184  16.050441
688.5  310.26525  16.049739
689  407.41514  16.049038
689.5  344.84076  16.048336
690  316.18942  16.047634
690.5  280.06898  16.046932
691  300.62375  16.046231
691.5  366.17587  16.045529
692  366.071  16.044827
692.5  316.73754  16.044125
693  340.85527  16.043422
693.5  306.8699  16.04272
694  315.23233  16.042018
694.5  492.2133  16.041316
695  355.58548  16.040613
695.5  271.18014  16.039911
696  335.4741  16.039208
696.5  365.8153  16.038506
697  309.17131  16.037803
697.5  285.14977  16.0371
698  368.34542  16.036398
698.5  312.54813  16.035695
699  405.0815  16.034992
699.5  382.73014  16.034289
700  399.13879  16.033586
700.5  342.0879  16.032883
701  369.74406  16.03218
701.5  378.60553  16.031477
702  385.34622  16.030773
702.5  333.82987  16.03007
703  300.42254  16.029367
703.5  378.07721  16.028663
704  432.97577  16.02796
704.5  390.05045  16.027256
705  382.28345  16.026553
705.5  365.37358  16.025849
706  360.92608  16.025146
706.5  267.27493  16.024442
707  306.46681  16.023738
707.5  331.80469  16.023034
708  356.18469  16.02233
708.5  337.27926  16.021626
709  398.824  16.020922
709.5  351.01708  16.020218
710  310.22709  16.019514
710.5  390.97539  16.01881
711  358.17231  16.018106
711.5  397.11459  16.017402
712  367.22505  16.016698
712.5  377.58909  16.015993
713  273.20883  16.015289
713.5  346.40771  16.014584
714  350.49685  16.01388
714.5  316.68224  16.013175
715  339.58967  16.012471
715.5  315.18677  16.011766
716  327.65811  16.011062
716.5  287.64298  16.010357
717  280.36004  16.009652
717.5  315.59682  16.008947
718  340.65154  16.008243
718.5  402.60142  16.007538
719  435.4522  16.006833
719.5  361.15845  16.006128
720  327.0457  16.005423
720.5  342.64012  16.004718
721  245.45565  16.004013
721.5  316.44867  16.003308
722  347.27996  16.002603
722.5  322.34236  16.001897
723  363.62244  16.001192
723.5  348.68423  16.000487
724  274.82201  15.999782
724.5  286.15796  15.999076
725  300.3094  15.998371
725.5  280.63318  15.997665
726  420.43216  15.99696
726.5  384.58539  15.996254
727  329.6278  15.995549
727.5  334.11859  15.994843
728  482.67611  15.994138
728.5  373.10381  15.993432
729  363.76477  15.992726
729.5  415.92108  15.992021
730  364.42157  15.991315
730.5  340.92081  15.990609
731  359.41101  15.989903
731.5  300.5569  15.989198
732  390.843  15.988492
732.5  371.7454  15.987786
733  315.21038  15.98708
733.5  346.60299  15.986374
734  349.52241  15.985668
734.5  357.50661  15.984962
735  265.52523  15.984256
735.5  201.6633  15.98355
736  322.55175  15.982844
736.5  311.43089  15.982138
737  311.20391  15.981431
737.5  331.63203  15.980725
738  279.52085  15.980019
738.5  413.81816  15.979313
739  357.5312  15.978607
739.5  350.64702  15.9779
740  293.55143  15.977194
740.5  251.90977  15.976488
741  327.00904  15.975781
741.5  295.82126  15.975075
742  310.75159  15.974368
742.5  323.68242  15.973662
743  334.79543  15.972955
743.5  318.93788  15.972249
744  352.16928  15.971542
744.5  344.49865  15.970836
745  349.40691  15.970129
745.5  321.89734  15.969423
746  329.4383  15.968716
746.5  323.93901  15.96801
747  379.06917  15.967303
747.5  353.90619  15.966596
748  324.73614  15.96589
748.5  343.22227  15.965183
749  359.92224  15.964476
749.5  362.70307  15.963769
750  369.6441  15.963063
750.5  352.34319  15.962356
751  380.2684  15.961649
751.5  330.83408  15.960942
752  351.23133  15.960235
752.5  322.09668  15.959528
753  303.34048  15.958822
753.5  313.66995  15.958115
754  261.21169  15.957408
754.5  348.07645  15.956701
755  265.14731  15.955994
755.5  239.30616  15.955287
756  276.62287  15.95458
756.5  338.34478  15.953873
757  329.77216  15.953166
757.5  286.8876  15.952459
758  398.25228  15.951752
758.5  393.21995  15.951045
759  295.66082  15.950338
759.5  313.92356  15.949631
760  376.65426  15.948924
760.5  369.06607  15.948217
761  337.72106  15.94751
761.5  393.81467  15.946803
762  382.2202  15.946095
762.5  282.70829  15.945388
763  299.8255  15.944681
763.5  306.65955  15.943974
764  337.62545  15.943267
764.5  355.71478  15.94256
765  346.56837  15.941853
765.5  314.60372  15.941145
766  258.97087  15.940438
766.5  338.68107  15.939731
767  409.01587  15.939024
767.5  303.83321  15.938317
768  299.41703  15.937609
768.5  383.04834  15.936902
769  323.15538  15.936195
769.5  364.27425  15.935488
770  365.26019  15.93478
770.5  343.85592  15.934073
771  294.44399  15.933366
771.5  319.90031  15.932659
772  316.91764  15.931951
772.5  340.82594  15.931244
773  269.07022  15.930537
773.5  289.63094  15.92983
774  251.72336  15.929122
774.5  260.7693  15.928415
775  325.60619  15.927708
775.5  335.13214  15.927
776  289.93187  15.926293
776.5  344.84041  15.925586
777  386.0521  15.924879
777.5  384.30765  15.924171
778  411.21151  15.923464
778.5  380.12859  15.922757
779  363.95568  15.922049
779.5  369.06229  15.921342
780  310.66075  15.920635
780.5  293.44083  15.919927
781  304.48097  15.91922
781.5  263.98327  15.918513
782  272.95344  15.917806
782.5  289.80404  15.917098
783  338.5509  15.916391
783.5  294.66245  15.915684
784  273.86537  15.914976
784.5  286.64455  15.914269
785  379.06487  15.913562
785.5  404.58188  15.912855
786  319.46634  15.912147
786.5  379.79935  15.91144
787  295.85353  15.910733
787.5  182.58069  15.910025
788  263.74439  15.909318
788.5  372.24769  15.908611
789  364.0511  15.907904
789.5  309.66824  15.907196
790  355.36803  15.906489
790.5  336.06786  15.905782
791  265.638  15.905075
791.5  277.99941  15.904367
792  301.82714  15.90366
792.5  367.06781  15.902953
793  390.43413  15.902246
793.5  318.43284  15.901539
794  274.3342  15.900831
794.5  318.57402  15.900124
795  271.48538  15.899417
795.5  268.40489  15.89871
796  311.65921  15.898003
796.5  250.2735  15.897296
797  262.93104  15.896589
797.5  251.45313  15.895881
798  240.89891  15.895174
798.5  308.86836  15.894467
799  303.40524  15.89376
799.5  311.53566  15.893053
800  288.95166  15.892346
800.5  336.99132  15.891639
801  360.06828  15.890932
801.5  332.10158  15.890225
802  282.20666  15.889518
802.5  279.39811  15.888811
803  219.24832  15.888104
803.5  274.77234  15.887397
804  229.19329  15.88669
804.5  315.5278  15.885983
805  268.99822  15.885276
805.5  249.36185  15.884569
806  275.56006  15.883862
806.5  307.73389  15.883155
807  316.05841  15.882448
807.5  235.03647  15.881741
808  364.48829  15.881035
808.5  385.53409  15.880328
809  327.46647  15.879621
809.5  313.75437  15.878914
810  424.99582  15.878207
810.5  295.10061  15.8775
811  283.72404  15.876794
811.5  336.64053  15.876087
812  340.69748  15.87538
812.5  299.00206  15.874673
813  264.25237  15.873967
813.5  252.54866  15.87326
814  304.156  15.872553
814.5  263.31378  15.871847
815  329.74887  15.87114
815.5  304.40789  15.870433
816  290.56943  15.869727
816.5  293.00843  15.86902
817  335.89305  15.868314
817.5  292.81284  15.867607
818  328.88741  15.866901
818.5  236.8193  15.866194
819  244.74921  15.865488
819.5  262.47899  15.864781
820  389.83071  15.864075
820.5  317.3846  15.863368
821  329.19246  15.862662
821.5  303.18675  15.861956
822  366.1069  15.861249
822.5  311.59038  15.860543
823  350.61606  15.859837
823.5  300.23712  15.85913
824  317.59795  15.858424
824.5  326.89978  15.857718
825  286.0086  15.857012
825.5  255.61963  15.856305
826  269.02858  15.855599
826.5  293.60112  15.854893
827  302.32403  15.854187
827.5  332.22035  15.853481
828  282.49274  15.852775
828.5  312.22433  15.852069
829  309.92277  15.851363
829.5  326.166  15.850657
830  376.13907  15.849951
830.5  408.38229  15.849245
831  371.99721  15.848539
831.5  255.13217  15.847833
832  279.10698  15.847127
832.5  307.78866  15.846421
833  326.98297  15.845715
833.5  374.6707  15.84501
834  443.48651  15.844304
834.5  404.96407  15.843598
835  307.71842  15.842892
835.5  239.35158  15.842187
836  295.47869  15.841481
836.5  291.12166  15.840775
837  231.76902  15.84007
837.5  238.682  15.839364
838  251.36317  15.838659
838.5  294.0427  15.837953
839  276.45348  15.837248
839.5  309.98633  15.836542
840  284.92254  15.835837
840.5  333.10818  15.835131
841  322.33854  15.834426
841.5  243.09069  15.83372
842  260.23256  15.833015
842.5  323.59028  15.83231
843  402.91702  15.831605
843.5  369.14838  15.830899
844  255.32382  15.830194
844.5  307.85285  15.829489
845  337.31606  15.828784
845.5  279.60288  15.828079
846  356.30317  15.827374
846.5  354.8222  15.826669
847  361.78686  15.825964
847.5  393.81893  15.825259
848  397.30179  15.824554
848.5  309.36809  15.823849
849  282.67014  15.823144
849.5  267.0882  15.822439
850  253.2401  15.821734
850.5  291.81434  15.821029
851  317.51947  15.820325
851.5  312.21153  15.81962
852  284.95434  15.818915
852.5  278.94612  15.818211
853  360.36052  15.817506
853.5  317.22546  15.816801
854  211.48122  15.816097
854.5  311.22913  15.815392
855  301.10862  15.814688
855.5  295.83902  15.813983
856  317.36888  15.813279
856.5  305.73463  15.812575
857  246.32202  15.81187
857.5  259.88999  15.811166
858  310.87578  15.810462
858.5  208.7427  15.809757
859  197.62965  15.809053
859.5  248.20348  15.808349
860  295.96129  15.807645
860.5  266.76951  15.806941
861  220.82445  15.806237
861.5  262.23323  15.805533
862  334.70702  15.804829
862.5  261.11456  15.804125
863  231.22037  15.803421
863.5  264.9866  15.802717
864  211.9645  15.802013
864.5  206.11698  15.801309
865  227.16937  15.800606
865.5  314.67547  15.799902
866  283.71925  15.799198
866.5  243.77042  15.798495
867  272.19094  15.797791
867.5  319.02994  15.797087
868  330.27248  15.796384
868.5  374.73073  15.79568
869  357.94088  15.794977
869.5  295.93399  15.794274
870  579.09861  15.79357
870.5  822.31804  15.792867
871  937.93511  15.792164
871.5  1146.3006  15.79146
872  1459.1321  15.790757
872.5  1554.0388  15.790054
873  1330.2212  15.789351
873.5  1316.7081  15.788648
874  1090.1542  15.787945
874.5  807.22643  15.787242
875  548.2522  15.786539
875.5  339.50409  15.785836
876  201.92941  15.785133
876.5  124.52132  15.78443
877  141.38542  15.783727
877.5  177.27943  15.783025
878  92.233376  15.782322
878.5  62.876279  15.781619
879  73.240665  15.780917
879.5  84.1704  15.780214
880  38.94752  15.779512
880.5  38.27248  15.778809
881  39.11128  15.778107
881.5  35.984596  15.777404
882  18.919524  15.776702
882.5  54.430436  15.776
883  42.975928  15.775297
883.5  47.757796  15.774595
884  35.70196  15.773893
884.5  77.98928  15.773191
885  69.77264  15.772489
885.5  107.97553  15.771787
886  194.20184  15.771085
886.5  181.27613  15.770383
887  219.43498  15.769681
887.5  207.8711  15.768979
888  180.65727  15.768277
888.5  253.11172  15.767575
889  361.39307  15.766874
889.5  423.77028  15.766172
890  323.71034  15.76547
890.5  335.78407  15.764769
891  405.02542  15.764067
891.5  437.89159  15.763366
892  337.19222  15.762664
892.5  285.06858  15.761963
893  288.79732  15.761261
893.5  185.68022  15.76056
894  107.2112  15.759859
894.5  31.2354  15.759158
895  21.65928  15.758457
895.5  10.73376  15.757755
896  13.91988  15.757054
896.5  0  15.756353
897  0  15.755652
897.5  6.32172  15.754951
898  3.67828  15.754251
898.5  1.86404  15.75355
899  8.13596  15.752849
899.5  0  15.752148
900  0.888676  15.751448
900.5  9.111324  15.750747
901  0  15.750046
901.5  1.3992  15.749346
902  13.43664  15.748645
902.5  5.16416  15.747945
903  3.86048  15.747244
903.5  6.13952  15.746544
904  0  15.745844
904.5  4.83584  15.745144
905  5.16416  15.744443

