# Created by:        SpecsLab Prodigy, Version 4.84.1-r101483 
#
# XY-Serializer Export Settings:
#   Comment Prefix:           #
#   Output Meta Data:         yes
#   Energy Axis:              Kinetic Energy
#   Count Rate:               Counts per Second
#   Separate Scan Data:       no
#   Separate Channel Data:    no
#   External Channel Data:    yes
#   Transmission Function:    yes
#   Error Bar:                no
#   Operation Results:        yes
#   Time Zone Format:         UTC
#
# Group:                        L-serine pH 7 500 mM
#
# Region:                       VBM
# Spectrum ID:                  671
# Acquisition Date:             03/12/26 13:30:13 UTC
# Analysis Method:              XPS
# Analyzer:                     Phoibos
# Analyzer Lens:                LargeArea:3.5kV
# Analyzer Slit:                5:7x20\B:open
# Scan Mode:                    FixedAnalyzerTransmission
# Curves/Scan:                  1
# Values/Curve:                 251
# Dwell Time:                   0.1
# Excitation Energy:            600
# Kinetic Energy:               580
# Pass Energy:                  10
# Bias Voltage:                 220
# Detector Voltage:             1920
# Eff. Workfunction:            0
# Source:                       Monochromator
# Comment:                      

# Cycle: 0
#
# Number of Scans: 2

# Cycle: 0, Curve: 0
#
# Acquisition Date:             03/12/26 13:30:13 UTC
# ColumnLabels:                 energy counts/s transmission
#
580  207.53444  7.6188497
580.1  229.7215  7.6187184
580.2  252.1227  7.6185871
580.3  307.96743  7.6184558
580.4  259.71336  7.6183245
580.5  253.0341  7.6181933
580.6  181.51265  7.618062
580.7  184.8091  7.6179307
580.8  194.83404  7.6177994
580.9  190.74059  7.6176682
581  216.13282  7.6175369
581.1  185.02541  7.6174057
581.2  204.52719  7.6172745
581.3  174.07953  7.6171432
581.4  159.84385  7.617012
581.5  178.03281  7.6168808
581.6  183.29022  7.6167496
581.7  177.28038  7.6166184
581.8  169.60967  7.6164872
581.9  208.62489  7.616356
582  176.66372  7.6162248
582.1  175.31409  7.6160937
582.2  167.89766  7.6159625
582.3  126.80715  7.6158313
582.4  140.82254  7.6157002
582.5  186.16752  7.615569
582.6  211.83349  7.6154379
582.7  148.36122  7.6153067
582.8  147.27121  7.6151756
582.9  178.69911  7.6150445
583  183.40065  7.6149134
583.1  188.96274  7.6147823
583.2  150.78547  7.6146512
583.3  165.7454  7.6145201
583.4  159.7055  7.614389
583.5  140.25904  7.6142579
583.6  152.21298  7.6141268
583.7  121.58205  7.6139958
583.8  146.84831  7.6138647
583.9  194.88635  7.6137337
584  168.493  7.6136026
584.1  159.54358  7.6134716
584.2  195.69605  7.6133405
584.3  231.37749  7.6132095
584.4  295.13745  7.6130785
584.5  259.7321  7.6129475
584.6  279.66075  7.6128165
584.7  299.44475  7.6126855
584.8  321.52698  7.6125545
584.9  365.23945  7.6124235
585  431.15789  7.6122925
585.1  447.58287  7.6121615
585.2  506.99034  7.6120306
585.3  538.40191  7.6118996
585.4  577.6001  7.6117686
585.5  602.76317  7.6116377
585.6  581.43487  7.6115068
585.7  586.15391  7.6113758
585.8  733.59849  7.6112449
585.9  657.36829  7.611114
586  801.72994  7.6109831
586.1  955.15368  7.6108522
586.2  856.25604  7.6107213
586.3  763.11079  7.6105904
586.4  805.48454  7.6104595
586.5  831.91401  7.6103286
586.6  847.21241  7.6101977
586.7  872.37878  7.6100669
586.8  897.8172  7.609936
586.9  804.0055  7.6098052
587  802.80136  7.6096743
587.1  857.47496  7.6095435
587.2  818.93534  7.6094126
587.3  820.43358  7.6092818
587.4  911.4289  7.609151
587.5  869.38517  7.6090202
587.6  789.08038  7.6088894
587.7  735.85212  7.6087586
587.8  610.63549  7.6086278
587.9  599.05398  7.608497
588  617.52354  7.6083662
588.1  608.29106  7.6082354
588.2  609.6483  7.6081047
588.3  586.32026  7.6079739
588.4  593.6489  7.6078432
588.5  696.8274  7.6077124
588.6  790.7232  7.6075817
588.7  749.26129  7.607451
588.8  815.93436  7.6073202
588.9  934.53588  7.6071895
589  1213.5494  7.6070588
589.1  1420.3137  7.6069281
589.2  1524.3238  7.6067974
589.3  1671.5975  7.6066667
589.4  1643.7277  7.606536
589.5  1868.5165  7.6064054
589.6  1981.6783  7.6062747
589.7  1964.7852  7.606144
589.8  1995.4052  7.6060134
589.9  2010.3145  7.6058827
590  1796.3769  7.6057521
590.1  1620.1575  7.6056214
590.2  1734.5133  7.6054908
590.3  1615.7188  7.6053602
590.4  1559.2472  7.6052296
590.5  1537.1278  7.605099
590.6  1646.7217  7.6049683
590.7  1602.1809  7.6048378
590.8  1507.6584  7.6047072
590.9  1608.6439  7.6045766
591  1643.7701  7.604446
591.1  1610.0629  7.6043154
591.2  1647.0585  7.6041849
591.3  1790.6503  7.6040543
591.4  1753.2376  7.6039238
591.5  2096.1886  7.6037932
591.6  2272.1722  7.6036627
591.7  2372.7929  7.6035322
591.8  2192.525  7.6034016
591.9  1691.4072  7.6032711
592  1284.2659  7.6031406
592.1  1250.7294  7.6030101
592.2  1271.0879  7.6028796
592.3  1264.487  7.6027491
592.4  1379.4272  7.6026186
592.5  1603.1495  7.6024882
592.6  1740.5216  7.6023577
592.7  1773.6848  7.6022272
592.8  1869.4672  7.6020968
592.9  1806.5804  7.6019663
593  1798.1866  7.6018359
593.1  1819.1653  7.6017055
593.2  1781.1788  7.601575
593.3  1675.7621  7.6014446
593.4  1535.0504  7.6013142
593.5  1392.2226  7.6011838
593.6  1323.2096  7.6010534
593.7  1101.1585  7.600923
593.8  861.80918  7.6007926
593.9  763.49802  7.6006622
594  707.51108  7.6005319
594.1  545.8569  7.6004015
594.2  342.61525  7.6002711
594.3  330.60865  7.6001408
594.4  214.20461  7.6000104
594.5  166.25932  7.5998801
594.6  112.30937  7.5997498
594.7  110.22636  7.5996194
594.8  117.66693  7.5994891
594.9  72.06484  7.5993588
595  75.615785  7.5992285
595.1  79.178495  7.5990982
595.2  56.334975  7.5989679
595.3  52.17504  7.5988376
595.4  51.96638  7.5987074
595.5  44.78568  7.5985771
595.6  30.0609  7.5984468
595.7  32.13049  7.5983166
595.8  25.37461  7.5981863
595.9  21.28905  7.5980561
596  13.085515  7.5979258
596.1  23.365905  7.5977956
596.2  13.12718  7.5976654
596.3  17.89835  7.5975352
596.4  12.61215  7.5974049
596.5  4.87684  7.5972747
596.6  8.16186  7.5971445
596.7  8.9745  7.5970144
596.8  13.46395  7.5968842
596.9  2.39095  7.596754
597  12.983715  7.5966238
597.1  19.370085  7.5964937
597.2  5.25077  7.5963635
597.3  11.71048  7.5962334
597.4  15.12385  7.5961032
597.5  11.072334  7.5959731
597.6  24.008566  7.595843
597.7  12.48894  7.5957128
597.8  14.2683  7.5955827
597.9  7.608325  7.5954526
598  17.60463  7.5953225
598.1  9.105855  7.5951924
598.2  10.685619  7.5950623
598.3  8.718531  7.5949322
598.4  4.787745  7.5948022
598.5  17.595645  7.5946721
598.6  7.61661  7.594542
598.7  7.09406  7.594412
598.8  18.749509  7.5942819
598.9  32.655126  7.5941519
599  16.203705  7.5940219
599.1  8.80455  7.5938918
599.2  3.62495  7.5937618
599.3  7.5193  7.5936318
599.4  15.472675  7.5935018
599.5  8.293275  7.5933718
599.6  8.54035  7.5932418
599.7  11.9234  7.5931118
599.8  10.349525  7.5929818
599.9  17.727725  7.5928519
600  14.753015  7.5927219
600.1  9.012335  7.5925919
600.2  17.694345  7.592462
600.3  10.386705  7.592332
600.4  25.40942  7.5922021
600.5  33.94418  7.5920722
600.6  8.3356  7.5919422
600.7  13.9707  7.5918123
600.8  26.630265  7.5916824
600.9  16.616235  7.5915525
601  11.204415  7.5914226
601.1  9.016785  7.5912927
601.2  13.5366  7.5911628
601.3  16.804  7.591033
601.4  7.4807  7.5909031
601.5  10.932  7.5907732
601.6  13.7192  7.5906434
601.7  9.06355  7.5905135
601.8  11.5791  7.5903837
601.9  12.7315  7.5902538
602  13.9745  7.590124
602.1  1.2467  7.5899942
602.2  3.80455  7.5898644
602.3  5.4303  7.5897346
602.4  15.63375  7.5896048
602.5  17.34865  7.589475
602.6  11.83435  7.5893452
602.7  15.089045  7.5892154
602.8  5.859355  7.5890856
602.9  7.99195  7.5889559
603  2.00805  7.5888261
603.1  12.2647  7.5886963
603.2  16.44249  7.5885666
603.3  26.84186  7.5884368
603.4  11.41292  7.5883071
603.5  11.79133  7.5881774
603.6  7.5705  7.5880477
603.7  5.4252  7.587918
603.8  5.80885  7.5877882
603.9  21.498165  7.5876585
604  19.106535  7.5875289
604.1  17.603959  7.5873992
604.2  13.633866  7.5872695
604.3  13.204225  7.5871398
604.4  12.0087  7.5870101
604.5  11.97025  7.5868805
604.6  12.646895  7.5867508
604.7  13.974455  7.5866212
604.8  11.70605  7.5864916
604.9  10.51945  7.5863619
605  8.280565  7.5862323

