# Created by:        SpecsLab Prodigy, Version 4.84.1-r101483 
#
# XY-Serializer Export Settings:
#   Comment Prefix:           #
#   Output Meta Data:         yes
#   Energy Axis:              Kinetic Energy
#   Count Rate:               Counts per Second
#   Separate Scan Data:       no
#   Separate Channel Data:    no
#   External Channel Data:    yes
#   Transmission Function:    yes
#   Error Bar:                no
#   Operation Results:        yes
#   Time Zone Format:         UTC
#
# Group:                        L-serine pH 7 500 mM
#
# Region:                       C 1s 100
# Spectrum ID:                  631
# Acquisition Date:             03/12/26 06:56:41 UTC
# Analysis Method:              XPS
# Analyzer:                     Phoibos
# Analyzer Lens:                LargeArea:3.5kV
# Analyzer Slit:                5:7x20\B:open
# Scan Mode:                    FixedAnalyzerTransmission
# Curves/Scan:                  1
# Values/Curve:                 251
# Dwell Time:                   0.1
# Excitation Energy:            390
# Kinetic Energy:               90
# Pass Energy:                  10
# Bias Voltage:                 220
# Detector Voltage:             1920
# Eff. Workfunction:            0
# Source:                       Monochromator
# Comment:                      

# Cycle: 0
#
# Number of Scans: 15

# Cycle: 0, Curve: 0
#
# Acquisition Date:             03/12/26 06:56:41 UTC
# ColumnLabels:                 energy counts/s transmission
#
90  119.15005  8.1221682
90.1  116.05319  8.1223662
90.2  112.05238  8.1225636
90.3  110.68229  8.1227602
90.4  113.96831  8.1229561
90.5  106.57568  8.1231513
90.6  111.00382  8.1233458
90.7  120.87553  8.1235395
90.8  107.31452  8.1237326
90.9  101.54304  8.1239249
91  93.586899  8.1241166
91.1  106.9449  8.1243075
91.2  106.93931  8.1244978
91.3  114.68133  8.1246873
91.4  115.36146  8.1248762
91.5  115.20152  8.1250643
91.6  116.70253  8.1252518
91.7  103.78939  8.1254386
91.8  108.67824  8.1256246
91.9  114.7262  8.12581
92  112.28166  8.1259947
92.1  111.62605  8.1261788
92.2  110.96426  8.1263621
92.3  104.05556  8.1265448
92.4  119.68516  8.1267267
92.5  108.70925  8.126908
92.6  104.24693  8.1270887
92.7  107.93524  8.1272686
92.8  117.62584  8.1274479
92.9  114.78751  8.1276265
93  101.79146  8.1278045
93.1  109.73878  8.1279818
93.2  107.98093  8.1281584
93.3  121.74235  8.1283343
93.4  118.48549  8.1285096
93.5  109.06537  8.1286842
93.6  120.50309  8.1288582
93.7  106.30325  8.1290315
93.8  109.20814  8.1292042
93.9  102.16085  8.1293762
94  95.321651  8.1295476
94.1  105.71419  8.1297183
94.2  107.71625  8.1298884
94.3  119.78641  8.1300578
94.4  99.507372  8.1302265
94.5  95.419843  8.1303947
94.6  102.79233  8.1305622
94.7  96.743519  8.130729
94.8  103.21684  8.1308952
94.9  112.88106  8.1310608
95  113.57934  8.1312258
95.1  107.62648  8.1313901
95.2  98.091241  8.1315538
95.3  94.854169  8.1317168
95.4  101.2673  8.1318792
95.5  113.98224  8.132041
95.6  101.54976  8.1322022
95.7  104.68155  8.1323628
95.8  104.17922  8.1325227
95.9  97.922877  8.132682
96  107.29395  8.1328407
96.1  114.23034  8.1329988
96.2  106.43706  8.1331563
96.3  120.13578  8.1333131
96.4  109.30188  8.1334693
96.5  110.41059  8.133625
96.6  117.84055  8.13378
96.7  106.702  8.1339344
96.8  107.60292  8.1340882
96.9  90.073158  8.1342414
97  112.42724  8.134394
97.1  104.84752  8.134546
97.2  107.9996  8.1346974
97.3  114.19194  8.1348482
97.4  98.958111  8.1349984
97.5  93.876073  8.135148
97.6  107.46668  8.1352971
97.7  114.24747  8.1354455
97.8  111.39696  8.1355933
97.9  115.08867  8.1357406
98  115.60745  8.1358872
98.1  112.13291  8.1360333
98.2  117.5975  8.1361788
98.3  107.7403  8.1363237
98.4  107.86829  8.136468
98.5  110.17561  8.1366118
98.6  110.6441  8.1367549
98.7  113.95859  8.1368975
98.8  135.17732  8.1370395
98.9  108.42438  8.137181
99  111.61132  8.1373219
99.1  107.21732  8.1374622
99.2  110.01194  8.1376019
99.3  106.80029  8.137741
99.4  128.1225  8.1378796
99.5  112.28951  8.1380177
99.6  107.9927  8.1381551
99.7  102.54246  8.138292
99.8  117.56638  8.1384284
99.9  111.60979  8.1385641
100  106.36366  8.1386994
100.1  115.20755  8.138834
100.2  115.03661  8.1389681
100.3  126.82062  8.1391017
100.4  118.20405  8.1392347
100.5  117.95604  8.1393671
100.6  129.31517  8.139499
100.7  150.53484  8.1396304
100.8  151.25894  8.1397612
100.9  131.85564  8.1398914
101  135.37171  8.1400211
101.1  132.20447  8.1401503
101.2  133.5737  8.1402789
101.3  132.26336  8.140407
101.4  115.82427  8.1405345
101.5  135.27568  8.1406616
101.6  131.02638  8.140788
101.7  127.16189  8.140914
101.8  133.91299  8.1410394
101.9  125.86315  8.1411642
102  112.08  8.1412886
102.1  114.89111  8.1414124
102.2  124.18051  8.1415356
102.3  141.5318  8.1416584
102.4  139.07514  8.1417806
102.5  142.58747  8.1419023
102.6  147.35972  8.1420235
102.7  138.22662  8.1421441
102.8  156.99618  8.1422642
102.9  159.97356  8.1423838
103  145.22301  8.1425029
103.1  139.77166  8.1426215
103.2  142.81105  8.1427396
103.3  153.09659  8.1428571
103.4  152.70479  8.1429741
103.5  152.36435  8.1430906
103.6  134.98581  8.1432066
103.7  126.32585  8.1433221
103.8  132.84269  8.1434371
103.9  130.03158  8.1435516
104  117.02528  8.1436655
104.1  113.00931  8.143779
104.2  128.43689  8.143892
104.3  129.11533  8.1440044
104.4  118.36202  8.1441164
104.5  113.22883  8.1442278
104.6  124.17691  8.1443388
104.7  118.58341  8.1444492
104.8  117.18555  8.1445592
104.9  118.61037  8.1446687
105  127.37979  8.1447776
105.1  122.84674  8.1448861
105.2  124.48483  8.1449941
105.3  122.23419  8.1451016
105.4  128.11087  8.1452086
105.5  124.99632  8.1453151
105.6  128.16061  8.1454211
105.7  128.49941  8.1455267
105.8  108.80874  8.1456317
105.9  124.02228  8.1457363
106  128.45391  8.1458404
106.1  133.23789  8.145944
106.2  129.68883  8.1460471
106.3  122.93785  8.1461498
106.4  116.56101  8.146252
106.5  113.76628  8.1463536
106.6  124.27205  8.1464549
106.7  118.92237  8.1465556
106.8  121.82353  8.1466559
106.9  115.53928  8.1467557
107  101.86295  8.146855
107.1  109.21814  8.1469539
107.2  120.08047  8.1470522
107.3  126.56863  8.1471502
107.4  140.79772  8.1472476
107.5  123.46425  8.1473446
107.6  118.44512  8.1474411
107.7  135.26119  8.1475372
107.8  136.84249  8.1476328
107.9  121.07007  8.1477279
108  126.01663  8.1478226
108.1  121.41186  8.1479168
108.2  133.59635  8.1480105
108.3  120.60108  8.1481038
108.4  131.62399  8.1481967
108.5  125.32599  8.1482891
108.6  134.33369  8.148381
108.7  122.18432  8.1484725
108.8  120.59853  8.1485635
108.9  133.45977  8.1486541
109  132.57185  8.1487442
109.1  121.69059  8.1488339
109.2  130.59564  8.1489231
109.3  117.17923  8.1490119
109.4  98.242298  8.1491002
109.5  118.64932  8.1491881
109.6  125.4577  8.1492756
109.7  120.79023  8.1493626
109.8  122.52598  8.1494492
109.9  135.13324  8.1495353
110  139.95393  8.149621
110.1  115.7556  8.1497062
110.2  125.00621  8.149791
110.3  134.61674  8.1498754
110.4  126.61064  8.1499594
110.5  117.36435  8.1500429
110.6  123.35752  8.1501259
110.7  133.83872  8.1502086
110.8  134.07345  8.1502908
110.9  117.77888  8.1503726
111  129.47982  8.1504539
111.1  134.08822  8.1505348
111.2  141.61159  8.1506153
111.3  137.57236  8.1506954
111.4  139.17645  8.150775
111.5  126.74802  8.1508542
111.6  121.96265  8.150933
111.7  139.01682  8.1510114
111.8  137.34572  8.1510893
111.9  124.54798  8.1511669
112  123.38807  8.151244
112.1  131.47948  8.1513207
112.2  134.35014  8.1513969
112.3  134.94913  8.1514728
112.4  124.37791  8.1515482
112.5  122.36078  8.1516233
112.6  132.45224  8.1516979
112.7  141.45479  8.1517721
112.8  129.5913  8.1518458
112.9  132.16346  8.1519192
113  138.80103  8.1519922
113.1  141.87163  8.1520647
113.2  130.50034  8.1521369
113.3  132.96279  8.1522086
113.4  134.83513  8.1522799
113.5  132.72096  8.1523509
113.6  139.94095  8.1524214
113.7  149.11853  8.1524915
113.8  148.65038  8.1525612
113.9  139.25369  8.1526305
114  129.10001  8.1526995
114.1  123.46727  8.152768
114.2  146.54314  8.1528361
114.3  143.68746  8.1529038
114.4  134.08316  8.1529711
114.5  145.87527  8.153038
114.6  142.19735  8.1531046
114.7  123.8165  8.1531707
114.8  131.48546  8.1532364
114.9  141.69763  8.1533018
115  147.39503  8.1533667

