# Created by:        SpecsLab Prodigy, Version 4.84.1-r101483 
#
# XY-Serializer Export Settings:
#   Comment Prefix:           #
#   Output Meta Data:         yes
#   Energy Axis:              Kinetic Energy
#   Count Rate:               Counts per Second
#   Separate Scan Data:       no
#   Separate Channel Data:    no
#   External Channel Data:    yes
#   Transmission Function:    yes
#   Error Bar:                no
#   Operation Results:        yes
#   Time Zone Format:         UTC
#
# Group:                        L-serine pH 7 500 mM
#
# Region:                       Survey
# Spectrum ID:                  698
# Acquisition Date:             03/12/26 16:16:14 UTC
# Analysis Method:              XPS
# Analyzer:                     Phoibos
# Analyzer Lens:                LargeArea:3.5kV
# Analyzer Slit:                5:7x20\B:open
# Scan Mode:                    FixedAnalyzerTransmission
# Curves/Scan:                  1
# Values/Curve:                 1611
# Dwell Time:                   0.1
# Excitation Energy:            900
# Kinetic Energy:               100
# Pass Energy:                  20
# Bias Voltage:                 220
# Detector Voltage:             1920
# Eff. Workfunction:            0
# Source:                       Monochromator
# Comment:                      

# Cycle: 0
#
# Number of Scans: 1

# Cycle: 0, Curve: 0
#
# Acquisition Date:             03/12/26 16:16:14 UTC
# ColumnLabels:                 energy counts/s transmission
#
100  29.266284  16.070513
100.5  22.238048  16.074422
101  9.84508  16.078297
101.5  15.829636  16.082137
102  32.912364  16.085942
102.5  26.13952  16.089715
103  29.307276  16.093454
103.5  17.4793  16.09716
104  32.124104  16.100833
104.5  13.94716  16.104474
105  39.58498  16.108084
105.5  45.56074  16.111661
106  39.557744  16.115208
106.5  30.268924  16.118723
107  40.346732  16.122208
107.5  10.309892  16.125663
108  6.408428  16.129088
108.5  11.622411  16.132483
109  23.541749  16.135848
109.5  25.68352  16.139185
110  11.76852  16.142493
110.5  31.563032  16.145772
111  46.845928  16.149023
111.5  48.98368  16.152246
112  51.3262  16.155442
112.5  26.89644  16.15861
113  24.98612  16.161751
113.5  37.739336  16.164865
114  27.6527  16.167953
114.5  36.736724  16.171014
115  26.74088  16.17405
115.5  30.46952  16.177059
116  35.852215  16.180043
116.5  28.309345  16.183002
117  18.851256  16.185935
117.5  19.594584  16.188844
118  8.54136  16.191728
118.5  36.8548  16.194588
119  41.02108  16.197424
119.5  36.51768  16.200236
120  24.672072  16.203024
120.5  12.907684  16.205788
121  35.478724  16.20853
121.5  44.525912  16.211248
122  36.563408  16.213944
122.5  39.6444  16.216617
123  22.124132  16.219268
123.5  16.052828  16.221896
124  49.9857  16.224503
124.5  71.35406  16.227087
125  52.192412  16.22965
125.5  45.966148  16.232192
126  60.75216  16.234713
126.5  48.400172  16.237212
127  31.135003  16.239691
127.5  41.477065  16.242149
128  22.57932  16.244587
128.5  52.32476  16.247004
129  31.595132  16.249401
129.5  51.157544  16.251778
130  24.257084  16.254136
130.5  45.656292  16.256474
131  63.390904  16.258793
131.5  59.822484  16.261092
132  70.42384  16.263373
132.5  60.49214  16.265634
133  49.3441  16.267877
133.5  20.3556  16.270101
134  35.10472  16.272307
134.5  52.975956  16.274494
135  55.84804  16.276664
135.5  48.514084  16.278815
136  41.50848  16.280949
136.5  53.482328  16.283065
137  32.547952  16.285163
137.5  37.780392  16.287244
138  49.38902  16.289308
138.5  51.982904  16.291355
139  13.281684  16.293385
139.5  32.848248  16.295398
140  61.436072  16.297395
140.5  91.695316  16.299375
141  20.515484  16.301339
141.5  43.340272  16.303286
142  62.963048  16.305217
142.5  30.83884  16.307133
143  30.737863  16.309032
143.5  66.075937  16.310916
144  45.829676  16.312784
144.5  45.213976  16.314637
145  69.2478  16.316474
145.5  43.231908  16.318296
146  48.71472  16.320103
146.5  48.276535  16.321896
147  91.599945  16.323673
147.5  67.502612  16.325435
148  43.627748  16.327183
148.5  98.64168  16.328916
149  34.97788  16.330635
149.5  14.1519  16.33234
150  54.5259  16.334031
150.5  37.75784  16.335707
151  59.566532  16.337369
151.5  86.727163  16.339018
152  100.14614  16.340653
152.5  95.674644  16.342274
153  44.5854  16.343882
153.5  96.549076  16.345476
154  51.2723  16.347057
154.5  68.240272  16.348625
155  49.106648  16.350179
155.5  136.42189  16.351721
156  63.933692  16.35325
156.5  101.82308  16.354766
157  62.055876  16.356269
157.5  79.963124  16.357759
158  83.764947  16.359237
158.5  104.19759  16.360703
159  94.188815  16.362156
159.5  85.647449  16.363596
160  103.75531  16.365025
160.5  72.160988  16.366442
161  55.9934  16.367846
161.5  103.60038  16.369239
162  106.8692  16.37062
162.5  115.10411  16.371989
163  99.727005  16.373347
163.5  109.8313  16.374693
164  116.97371  16.376027
164.5  80.94322  16.37735
165  104.1527  16.378662
165.5  97.054684  16.379962
166  158.76124  16.381252
166.5  65.2324  16.38253
167  97.939432  16.383797
167.5  70.255968  16.385054
168  102.22783  16.386299
168.5  87.967288  16.387534
169  150.1503  16.388758
169.5  78.104544  16.389972
170  65.724532  16.391175
170.5  98.80144  16.392367
171  62.182708  16.393549
171.5  119.2253  16.394721
172  153.22168  16.395883
172.5  144.71362  16.397034
173  131.16168  16.398175
173.5  140.3426  16.399306
174  94.912936  16.400428
174.5  170.10031  16.401539
175  128.32795  16.402641
175.5  100.54652  16.403733
176  112.11041  16.404815
176.5  166.17513  16.405887
177  184.53553  16.40695
177.5  168.76454  16.408004
178  129.11626  16.409048
178.5  133.26792  16.410082
179  90.013695  16.411108
179.5  152.70214  16.412124
180  189.4307  16.413131
180.5  173.10426  16.414129
181  175.55033  16.415117
181.5  209.36265  16.416097
182  182.66605  16.417068
182.5  172.92188  16.41803
183  220.65585  16.418983
183.5  204.24829  16.419928
184  196.5408  16.420863
184.5  237.21856  16.421791
185  286.17235  16.422709
185.5  183.02166  16.423619
186  160.60684  16.42452
186.5  241.42088  16.425414
187  231.85526  16.426298
187.5  207.49773  16.427175
188  302.74796  16.428043
188.5  302.36577  16.428903
189  319.13376  16.429755
189.5  248.75167  16.430598
190  287.27856  16.431434
190.5  333.34516  16.432262
191  347.38861  16.433082
191.5  285.30074  16.433894
192  326.97762  16.434698
192.5  382.1473  16.435494
193  370.30896  16.436282
193.5  474.85921  16.437063
194  379.73513  16.437837
194.5  411.94724  16.438602
195  425.07598  16.43936
195.5  470.74354  16.440111
196  507.63802  16.440854
196.5  551.59119  16.44159
197  462.58488  16.442318
197.5  512.03249  16.443039
198  507.8485  16.443753
198.5  582.52418  16.44446
199  631.17183  16.445159
199.5  635.66523  16.445851
200  595.26445  16.446537
200.5  681.33428  16.447215
201  670.80352  16.447886
201.5  587.26845  16.44855
202  778.41352  16.449208
202.5  738.2131  16.449858
203  752.33359  16.450502
203.5  848.20832  16.451139
204  805.41536  16.451769
204.5  888.39452  16.452392
205  903.46856  16.453009
205.5  901.87867  16.453619
206  891.25216  16.454223
206.5  959.62079  16.45482
207  1026.0159  16.45541
207.5  981.10918  16.455995
208  1059.3016  16.456572
208.5  1013.3824  16.457144
209  1088.3759  16.457709
209.5  1296.0991  16.458267
210  1161.6177  16.45882
210.5  1289.9356  16.459366
211  1175.9079  16.459906
211.5  1102.5564  16.460439
212  1354.3382  16.460967
212.5  1365.0175  16.461489
213  1514.8896  16.462004
213.5  1422.5582  16.462514
214  1383.8091  16.463017
214.5  1565.5193  16.463515
215  1424.3544  16.464007
215.5  1608.1555  16.464493
216  1811.9527  16.464973
216.5  1622.5007  16.465447
217  1613.0284  16.465915
217.5  1616.0739  16.466378
218  1815.3952  16.466835
218.5  1837.2977  16.467287
219  1863.6554  16.467732
219.5  1606.2003  16.468172
220  1842.6176  16.468607
220.5  1987.8668  16.469036
221  2112.4299  16.469459
221.5  2121.7328  16.469877
222  2295.9465  16.47029
222.5  2129.3324  16.470697
223  2333.3992  16.471099
223.5  2285.0303  16.471495
224  2129.0553  16.471887
224.5  2294.5354  16.472272
225  2261.9537  16.472653
225.5  2586.3933  16.473028
226  2401.6017  16.473399
226.5  2495.7031  16.473764
227  2563.0803  16.474123
227.5  2126.0571  16.474478
228  2428.4846  16.474828
228.5  2495.082  16.475172
229  2574.3299  16.475512
229.5  2817.5534  16.475847
230  2821.7247  16.476176
230.5  2745.5411  16.476501
231  2979.1828  16.476821
231.5  2932.9966  16.477136
232  3014.2553  16.477446
232.5  3000.8888  16.477751
233  3001.2073  16.478051
233.5  3127.9438  16.478347
234  3190.127  16.478638
234.5  3323.8408  16.478924
235  3101.8484  16.479205
235.5  2996.4961  16.479482
236  3258.3021  16.479754
236.5  3107.6818  16.480021
237  3304.0042  16.480284
237.5  3571.6793  16.480543
238  3687.8418  16.480796
238.5  3948.399  16.481046
239  3929.3003  16.48129
239.5  3743.1567  16.481531
240  3797.1269  16.481766
240.5  3693.0583  16.481998
241  3826.197  16.482225
241.5  3862.8861  16.482448
242  4063.3578  16.482666
242.5  3826.4149  16.48288
243  3673.1866  16.483089
243.5  3666.8438  16.483295
244  3980.3959  16.483496
244.5  4182.8628  16.483693
245  4444.4035  16.483885
245.5  4235.2568  16.484074
246  4244.7696  16.484258
246.5  4354.7431  16.484438
247  4089.3172  16.484614
247.5  4278.7541  16.484786
248  4762.1961  16.484954
248.5  4869.2896  16.485118
249  4862.8211  16.485277
249.5  4488.1911  16.485433
250  4768.872  16.485585
250.5  4604.4412  16.485733
251  4725.7992  16.485876
251.5  4792.8938  16.486016
252  4792.6662  16.486152
252.5  4669.0767  16.486284
253  4949.5425  16.486412
253.5  4954.5204  16.486537
254  4764.8475  16.486657
254.5  5066.0907  16.486774
255  5095.6548  16.486887
255.5  4963.9892  16.486996
256  5454.8581  16.487101
256.5  5715.8246  16.487203
257  5329.1082  16.487301
257.5  5385.4527  16.487395
258  5598.6379  16.487486
258.5  5557.5161  16.487573
259  5747.0411  16.487656
259.5  5741.3637  16.487736
260  5515.5445  16.487812
260.5  5739.6699  16.487884
261  6046.6823  16.487953
261.5  6071.8987  16.488018
262  6112.4156  16.48808
262.5  5864.0825  16.488139
263  6031.6041  16.488193
263.5  6202.1954  16.488245
264  6030.4437  16.488293
264.5  6310.8815  16.488337
265  6333.5441  16.488378
265.5  6163.924  16.488416
266  6611.7607  16.48845
266.5  6605.4914  16.488481
267  6446.5912  16.488509
267.5  6550.3046  16.488533
268  6730.0289  16.488554
268.5  6639.7221  16.488572
269  7077.8354  16.488586
269.5  7048.7689  16.488597
270  6751.5022  16.488605
270.5  6764.5311  16.488609
271  7035.0101  16.488611
271.5  7106.4567  16.488609
272  7073.2615  16.488604
272.5  6971.0497  16.488596
273  7242.0585  16.488584
273.5  7240.7774  16.48857
274  7321.505  16.488552
274.5  7828.6837  16.488532
275  7378.1006  16.488508
275.5  7386.2337  16.488481
276  7478.0398  16.488451
276.5  7548.3846  16.488418
277  7625.2201  16.488382
277.5  7584.9424  16.488343
278  7873.9077  16.488301
278.5  7544.3734  16.488256
279  7592.3355  16.488208
279.5  8039.5357  16.488157
280  7938.798  16.488103
280.5  8423.0249  16.488046
281  7803.4839  16.487987
281.5  7583.158  16.487924
282  7745.1811  16.487858
282.5  8323.19  16.48779
283  8087.9337  16.487719
283.5  7904.9424  16.487645
284  8445.5667  16.487568
284.5  8452.2189  16.487488
285  8458.648  16.487406
285.5  8671.3338  16.48732
286  8694.829  16.487232
286.5  8745.1359  16.487141
287  8494.6132  16.487048
287.5  8181.2345  16.486951
288  8494.2962  16.486852
288.5  8757.2816  16.486751
289  8532  16.486646
289.5  8432.5858  16.486539
290  8657.9977  16.486429
290.5  8771.139  16.486317
291  8797.4078  16.486202
291.5  8752.1767  16.486084
292  8881.7298  16.485963
292.5  8720.6482  16.48584
293  8894.8578  16.485715
293.5  8900.0681  16.485587
294  9007.6966  16.485456
294.5  9169.6999  16.485323
295  9087.1918  16.485187
295.5  9127.664  16.485049
296  9599.2904  16.484908
296.5  9294.194  16.484764
297  9647.1179  16.484618
297.5  9616.9844  16.48447
298  9356.1878  16.484319
298.5  9315.9324  16.484166
299  9703.0519  16.48401
299.5  9553.3822  16.483852
300  9428.6304  16.483691
300.5  9740.6475  16.483528
301  10361.879  16.483363
301.5  10162.194  16.483195
302  10093.337  16.483025
302.5  10127.032  16.482852
303  10059.85  16.482677
303.5  9788.7729  16.4825
304  10324.588  16.482321
304.5  10042.308  16.482139
305  9864.1385  16.481954
305.5  10241.87  16.481768
306  10786.565  16.481579
306.5  10192.919  16.481388
307  9931.8899  16.481194
307.5  10404.794  16.480999
308  10803.789  16.480801
308.5  10363.315  16.480601
309  10808.323  16.480398
309.5  10967.997  16.480194
310  10941.286  16.479987
310.5  11161.499  16.479778
311  11166.573  16.479566
311.5  11221.826  16.479353
312  11232.073  16.479137
312.5  10705.568  16.47892
313  11242.957  16.4787
313.5  11472.098  16.478478
314  10856.54  16.478254
314.5  11608.67  16.478027
315  11654.741  16.477799
315.5  11745.331  16.477568
316  11517.407  16.477336
316.5  11914.443  16.477101
317  11302.424  16.476864
317.5  11681.96  16.476626
318  11610.675  16.476385
318.5  11675.822  16.476142
319  12193.495  16.475897
319.5  11874.864  16.47565
320  11772.557  16.475401
320.5  12022.803  16.47515
321  11827.729  16.474897
321.5  11827.599  16.474642
322  11751.568  16.474385
322.5  11932.947  16.474126
323  11920.063  16.473865
323.5  12088.343  16.473602
324  12133.266  16.473338
324.5  12196.292  16.473071
325  12159.742  16.472802
325.5  12228.279  16.472532
326  12559.374  16.472259
326.5  13022.161  16.471985
327  12402.714  16.471709
327.5  12574.61  16.47143
328  12506.308  16.47115
328.5  12993.599  16.470868
329  12716.588  16.470585
329.5  12751.817  16.470299
330  12920.17  16.470012
330.5  12707.558  16.469722
331  13122.007  16.469431
331.5  12531.727  16.469138
332  12710.473  16.468843
332.5  13206.994  16.468547
333  12636.566  16.468249
333.5  12836.079  16.467948
334  12794.447  16.467647
334.5  12949.065  16.467343
335  12985.823  16.467037
335.5  13022.365  16.46673
336  12678.173  16.466421
336.5  12836.024  16.466111
337  13913.393  16.465798
337.5  13416.224  16.465484
338  13581.535  16.465168
338.5  14303.636  16.464851
339  14599.762  16.464531
339.5  14177.55  16.46421
340  14648.405  16.463888
340.5  16264.083  16.463563
341  16359.342  16.463237
341.5  16693.913  16.46291
342  16523.711  16.46258
342.5  16930.202  16.462249
343  17066.512  16.461917
343.5  15672.309  16.461583
344  15417.559  16.461247
344.5  15678.444  16.460909
345  15816.593  16.46057
345.5  15984.883  16.460229
346  15379.173  16.459887
346.5  15137.326  16.459543
347  15055.442  16.459198
347.5  15140.873  16.458851
348  14790.931  16.458502
348.5  14764.879  16.458152
349  15318.854  16.4578
349.5  14729.008  16.457447
350  13821.443  16.457092
350.5  14074.646  16.456735
351  13474.414  16.456377
351.5  13502.901  16.456018
352  13206.572  16.455657
352.5  13428.233  16.455294
353  12331.199  16.45493
353.5  12435.359  16.454565
354  12202.949  16.454198
354.5  12054.337  16.45383
355  11967.16  16.45346
355.5  11433.186  16.453088
356  11285.874  16.452715
356.5  10412.445  16.452341
357  10114.972  16.451965
357.5  10585.622  16.451588
358  10342.339  16.451209
358.5  10063.899  16.450829
359  9971.7445  16.450447
359.5  9123.8089  16.450064
360  8596.5991  16.44968
360.5  7479.2937  16.449294
361  7212.8532  16.448907
361.5  6856.2115  16.448518
362  6671.0662  16.448128
362.5  7077.0787  16.447737
363  7140.5481  16.447344
363.5  7795.5774  16.44695
364  8488.8086  16.446554
364.5  9987.3367  16.446158
365  20197.121  16.445759
365.5  50955.854  16.44536
366  52800.105  16.444959
366.5  65008.693  16.444556
367  107703.96  16.444153
367.5  125874.48  16.443748
368  95024.902  16.443342
368.5  46427.157  16.442934
369  21384.103  16.442525
369.5  12198.901  16.442115
370  9667.8028  16.441703
370.5  8364.6505  16.441291
371  7442.036  16.440876
371.5  7265.765  16.440461
372  6858.2195  16.440044
372.5  6868.5639  16.439626
373  7050.1534  16.439207
373.5  6999.5843  16.438787
374  7001.4606  16.438365
374.5  6879.2669  16.437942
375  6964.4408  16.437518
375.5  7294.7503  16.437092
376  6978.6629  16.436666
376.5  6733.0234  16.436238
377  6471.4448  16.435808
377.5  6915.0505  16.435378
378  6425.4188  16.434946
378.5  6598.58  16.434514
379  6684.9795  16.43408
379.5  6563.8479  16.433644
380  6412.7757  16.433208
380.5  6257.3337  16.43277
381  6600.1764  16.432332
381.5  7193.9542  16.431892
382  6622.7717  16.43145
382.5  6829.8907  16.431008
383  6615.0059  16.430565
383.5  6900.2425  16.43012
384  7186.2957  16.429674
384.5  6654.7139  16.429227
385  6708.293  16.428779
385.5  6555.6274  16.42833
386  6726.6674  16.427879
386.5  6559.3755  16.427428
387  6590.4649  16.426975
387.5  6796.9659  16.426521
388  6596.0753  16.426067
388.5  6988.4256  16.425611
389  7028.6178  16.425153
389.5  7160.8262  16.424695
390  6875.5723  16.424236
390.5  7097.6806  16.423775
391  7438.328  16.423314
391.5  6848.6156  16.422851
392  7303.7099  16.422388
392.5  7448.9397  16.421923
393  7505.6347  16.421457
393.5  7304.9305  16.42099
394  7065.5502  16.420522
394.5  7362.8096  16.420053
395  7359.9649  16.419583
395.5  7279.1719  16.419112
396  7446.4698  16.41864
396.5  7232.2606  16.418167
397  7167.2135  16.417692
397.5  7026.5412  16.417217
398  7378.202  16.416741
398.5  7540.7832  16.416263
399  7349.2181  16.415785
399.5  7396.8521  16.415306
400  7717.2335  16.414825
400.5  7247.5989  16.414344
401  7311.8857  16.413861
401.5  7520.7143  16.413378
402  7455.9814  16.412894
402.5  7755.4672  16.412408
403  7860.4654  16.411922
403.5  7367.4632  16.411434
404  7435.3884  16.410946
404.5  7501.7213  16.410457
405  7491.0169  16.409966
405.5  7722.7532  16.409475
406  7758.3741  16.408983
406.5  7736.3578  16.40849
407  7885.5382  16.407996
407.5  7970.4031  16.407501
408  8035.5648  16.407005
408.5  7960.3995  16.406508
409  7713.6277  16.40601
409.5  7821.9867  16.405511
410  8301.8714  16.405011
410.5  7703.5231  16.40451
411  7833.1955  16.404009
411.5  7760.2855  16.403506
412  7916.6505  16.403002
412.5  7813.296  16.402498
413  7410.6247  16.401993
413.5  7593.3493  16.401487
414  8154.3964  16.400979
414.5  7759.126  16.400471
415  7667.3392  16.399962
415.5  8019.5904  16.399453
416  8173.0197  16.398942
416.5  8088.662  16.39843
417  7758.057  16.397918
417.5  8054.299  16.397405
418  8111.5199  16.39689
418.5  8301.9044  16.396375
419  7971.7433  16.395859
419.5  7938.2304  16.395342
420  7852.0707  16.394825
420.5  7956.5775  16.394306
421  8138.4483  16.393787
421.5  8077.744  16.393267
422  8025.4487  16.392746
422.5  7910.6213  16.392224
423  8254.1413  16.391701
423.5  8324.3905  16.391177
424  8289.721  16.390653
424.5  8370.4392  16.390128
425  8224.624  16.389602
425.5  8430.2647  16.389075
426  8131.4225  16.388547
426.5  8392.7432  16.388018
427  8531.145  16.387489
427.5  8199.6367  16.386959
428  8046.6424  16.386428
428.5  8232.0229  16.385896
429  8579.1768  16.385364
429.5  8255.3771  16.38483
430  8436.8649  16.384296
430.5  8423.5443  16.383761
431  8601.7572  16.383225
431.5  8904.8933  16.382689
432  8401.8018  16.382152
432.5  8730.1815  16.381614
433  8730.149  16.381075
433.5  7997.7662  16.380535
434  7990.0451  16.379995
434.5  8625.3449  16.379454
435  8927.9023  16.378912
435.5  8523.3787  16.378369
436  8840.6897  16.377826
436.5  8633.9111  16.377281
437  8349.4411  16.376736
437.5  8664.4016  16.376191
438  8507.0196  16.375644
438.5  8939.5378  16.375097
439  9239.895  16.374549
439.5  8733.285  16.374001
440  8540.9  16.373451
440.5  8375.0385  16.372901
441  8704.2648  16.372351
441.5  8811.4264  16.371799
442  9299.3518  16.371247
442.5  8820.3495  16.370694
443  8899.7859  16.37014
443.5  8760.7371  16.369586
444  9037.2232  16.369031
444.5  9280.5472  16.368475
445  9094.8294  16.367918
445.5  9160.1646  16.367361
446  9299.1309  16.366803
446.5  9176.6702  16.366245
447  9161.1145  16.365685
447.5  9316.1913  16.365125
448  8818.8077  16.364565
448.5  9079.5254  16.364003
449  9228.3009  16.363441
449.5  9297.6303  16.362879
450  9503.3814  16.362315
450.5  9550.1929  16.361751
451  9249.448  16.361187
451.5  9378.1032  16.360621
452  9677.4609  16.360055
452.5  9667.144  16.359489
453  9555.6122  16.358921
453.5  9588.5684  16.358353
454  9555.3312  16.357785
454.5  9205.7738  16.357215
455  9269.8554  16.356645
455.5  9713.9645  16.356075
456  9646.4745  16.355503
456.5  9432.4419  16.354932
457  9769.5356  16.354359
457.5  9764.1447  16.353786
458  10336.709  16.353212
458.5  10435.258  16.352638
459  10170.675  16.352063
459.5  10176.072  16.351487
460  10764.03  16.350911
460.5  10613.499  16.350334
461  10408.763  16.349756
461.5  10267.444  16.349178
462  10376.909  16.348599
462.5  10458.752  16.34802
463  10292.253  16.34744
463.5  10056.454  16.34686
464  10782.579  16.346278
464.5  10902.667  16.345697
465  10645.692  16.345114
465.5  10756.672  16.344531
466  10478.34  16.343948
466.5  10405.932  16.343364
467  10468.871  16.342779
467.5  10193.368  16.342193
468  10750.897  16.341608
468.5  10773.231  16.341021
469  10566.406  16.340434
469.5  10672.157  16.339846
470  10261.954  16.339258
470.5  10049.495  16.338669
471  10609.045  16.33808
471.5  11011.71  16.33749
472  11329.859  16.3369
472.5  11004.238  16.336309
473  11620.548  16.335717
473.5  11913.173  16.335125
474  11274.064  16.334532
474.5  11437.406  16.333939
475  11288.522  16.333345
475.5  11722.145  16.332751
476  11458.78  16.332156
476.5  11409.03  16.33156
477  11798.03  16.330964
477.5  11954.425  16.330368
478  11994.734  16.329771
478.5  12164.054  16.329173
479  12340.891  16.328575
479.5  12752.01  16.327976
480  12795.416  16.327377
480.5  12119.991  16.326777
481  12301.684  16.326177
481.5  12182.4  16.325576
482  11466.289  16.324975
482.5  11815.889  16.324373
483  11738.67  16.323771
483.5  11826.368  16.323168
484  10849.961  16.322564
484.5  10763.892  16.321961
485  11043.935  16.321356
485.5  10751.301  16.320751
486  10937.821  16.320146
486.5  10868.714  16.31954
487  11094.381  16.318934
487.5  10063.648  16.318327
488  9977.3785  16.317719
488.5  10206.966  16.317111
489  10058.428  16.316503
489.5  10340.927  16.315894
490  10553.489  16.315285
490.5  11007.05  16.314675
491  11138.418  16.314065
491.5  10936.956  16.313454
492  10796.337  16.312842
492.5  10932.081  16.312231
493  11042.023  16.311618
493.5  11300.734  16.311006
494  10712.888  16.310392
494.5  10966.154  16.309779
495  11282.682  16.309165
495.5  12065.499  16.30855
496  12526.436  16.307935
496.5  13322.048  16.307319
497  15017.16  16.306703
497.5  16076.832  16.306087
498  16333.634  16.30547
498.5  15394.891  16.304853
499  14220.307  16.304235
499.5  13224.079  16.303617
500  13644.671  16.302998
500.5  14004.605  16.302379
501  13816.286  16.301759
501.5  13918.844  16.301139
502  14739.894  16.300519
502.5  14131.83  16.299898
503  13078.162  16.299276
503.5  12873.234  16.298654
504  12041.873  16.298032
504.5  11276.45  16.297409
505  10743.381  16.296786
505.5  10482.588  16.296163
506  10012.82  16.295539
506.5  9950.5045  16.294914
507  9698.724  16.29429
507.5  9447.1424  16.293664
508  8494.6285  16.293039
508.5  7615.8222  16.292413
509  7052.2815  16.291786
509.5  6555.8127  16.291159
510  5882.5809  16.290532
510.5  5511.7867  16.289904
511  5038.0769  16.289276
511.5  4332.2662  16.288647
512  3559.2819  16.288018
512.5  3132.2663  16.287389
513  2628.8873  16.286759
513.5  2072.4517  16.286129
514  1744.2927  16.285498
514.5  1519.2909  16.284867
515  1234.9458  16.284236
515.5  1034.8435  16.283604
516  963.57303  16.282972
516.5  811.28287  16.282339
517  653.87538  16.281706
517.5  646.96752  16.281073
518  838.33573  16.280439
518.5  814.06152  16.279805
519  751.99622  16.27917
519.5  763.07157  16.278536
520  829.45455  16.2779
520.5  609.71797  16.277265
521  625.97119  16.276629
521.5  695.22593  16.275992
522  732.37081  16.275355
522.5  640.00464  16.274718
523  757.64307  16.274081
523.5  720.91294  16.273443
524  577.97274  16.272804
524.5  555.52302  16.272166
525  560.40619  16.271527
525.5  603.49545  16.270887
526  575.3614  16.270247
526.5  472.77577  16.269607
527  565.53692  16.268967
527.5  540.67491  16.268326
528  637.30038  16.267685
528.5  665.96639  16.267043
529  487.16272  16.266401
529.5  478.15772  16.265759
530  450.29221  16.265117
530.5  518.00279  16.264474
531  483.98472  16.26383
531.5  436.70406  16.263187
532  548.86062  16.262543
532.5  503.29967  16.261898
533  589.00526  16.261254
533.5  587.79885  16.260608
534  587.40223  16.259963
534.5  606.14442  16.259317
535  532.36968  16.258671
535.5  537.28437  16.258025
536  502.05029  16.257378
536.5  565.35922  16.256731
537  689.80906  16.256084
537.5  714.59389  16.255436
538  512.57208  16.254788
538.5  447.79004  16.25414
539  570.22572  16.253491
539.5  638.68348  16.252842
540  489.37218  16.252193
540.5  566.37961  16.251543
541  526.91958  16.250893
541.5  625.56953  16.250243
542  541.18974  16.249592
542.5  592.11051  16.248941
543  531.31261  16.24829
543.5  520.44708  16.247638
544  508.2674  16.246986
544.5  581.46006  16.246334
545  417.79826  16.245682
545.5  468.97754  16.245029
546  499.21314  16.244376
546.5  461.14323  16.243722
547  413.51917  16.243069
547.5  501.64825  16.242414
548  535.50754  16.24176
548.5  518.33098  16.241106
549  562.32904  16.240451
549.5  582.08309  16.239795
550  582.99366  16.23914
550.5  594.03943  16.238484
551  541.11148  16.237828
551.5  639.14239  16.237171
552  587.24308  16.236515
552.5  651.37123  16.235858
553  610.09297  16.2352
553.5  550.22174  16.234543
554  676.93242  16.233885
554.5  572.44832  16.233227
555  571.80563  16.232568
555.5  539.15163  16.23191
556  590.66508  16.231251
556.5  610.65213  16.230591
557  601.60468  16.229932
557.5  544.53419  16.229272
558  613.14111  16.228612
558.5  518.93308  16.227951
559  540.08335  16.227291
559.5  586.9993  16.22663
560  584.43945  16.225969
560.5  663.67278  16.225307
561  537.46858  16.224645
561.5  465.83683  16.223983
562  630.7299  16.223321
562.5  509.88652  16.222658
563  578.97756  16.221996
563.5  635.54304  16.221333
564  655.05786  16.220669
564.5  505.95572  16.220006
565  553.92732  16.219342
565.5  601.51738  16.218678
566  447.14431  16.218013
566.5  349.36108  16.217348
567  537.08224  16.216684
567.5  553.93331  16.216018
568  635.77776  16.215353
568.5  532.68184  16.214687
569  538.91524  16.214021
569.5  501.25875  16.213355
570  532.66959  16.212689
570.5  558.01766  16.212022
571  691.26132  16.211355
571.5  589.40346  16.210688
572  631.2997  16.210021
572.5  442.89126  16.209353
573  463.35332  16.208685
573.5  539.18358  16.208017
574  519.61782  16.207348
574.5  563.46322  16.20668
575  642.75754  16.206011
575.5  471.9481  16.205342
576  380.30038  16.204672
576.5  525.01174  16.204003
577  652.43071  16.203333
577.5  526.07526  16.202663
578  570.19175  16.201993
578.5  618.19744  16.201322
579  679.60533  16.200651
579.5  599.42137  16.19998
580  564.562  16.199309
580.5  506.33217  16.198638
581  529.97586  16.197966
581.5  520.30194  16.197294
582  525.57848  16.196622
582.5  517.64293  16.19595
583  626.42158  16.195277
583.5  523.04632  16.194605
584  479.41087  16.193932
584.5  556.34962  16.193258
585  547.54297  16.192585
585.5  445.98598  16.191911
586  506.67098  16.191237
586.5  562.27498  16.190563
587  595.00028  16.189889
587.5  442.64431  16.189215
588  435.14987  16.18854
588.5  496.01178  16.187865
589  534.25984  16.18719
589.5  616.06761  16.186514
590  526.50003  16.185839
590.5  541.69544  16.185163
591  547.25643  16.184487
591.5  500.33635  16.183811
592  588.27133  16.183134
592.5  585.39396  16.182458
593  564.87159  16.181781
593.5  563.53736  16.181104
594  497.75371  16.180427
594.5  529.84507  16.179749
595  569.68795  16.179072
595.5  582.86877  16.178394
596  551.29431  16.177716
596.5  508.55979  16.177038
597  527.49284  16.176359
597.5  508.21319  16.175681
598  532.12942  16.175002
598.5  480.29161  16.174323
599  504.1928  16.173644
599.5  532.97541  16.172965
600  488.02388  16.172285
600.5  464.44273  16.171605
601  462.10573  16.170925
601.5  433.4289  16.170245
602  445.68298  16.169565
602.5  437.68435  16.168885
603  484.10554  16.168204
603.5  572.96739  16.167523
604  454.24019  16.166842
604.5  439.22112  16.166161
605  469.87994  16.165479
605.5  442.40723  16.164798
606  429.24804  16.164116
606.5  410.90235  16.163434
607  456.6416  16.162752
607.5  429.3162  16.16207
608  328.45133  16.161387
608.5  265.15468  16.160705
609  474.48766  16.160022
609.5  498.86967  16.159339
610  457.23298  16.158656
610.5  675.10672  16.157972
611  952.37633  16.157289
611.5  1200.0463  16.156605
612  1005.9263  16.155921
612.5  1067.7685  16.155237
613  1333.6792  16.154553
613.5  1670.4892  16.153869
614  996.42132  16.153184
614.5  493.21841  16.152499
615  427.81324  16.151815
615.5  383.38191  16.15113
616  353.24154  16.150444
616.5  261.66343  16.149759
617  357.46086  16.149074
617.5  357.53467  16.148388
618  356.83157  16.147702
618.5  356.01647  16.147016
619  305.15624  16.14633
619.5  329.51042  16.145644
620  500.03547  16.144957
620.5  483.23261  16.144271
621  432.1013  16.143584
621.5  453.65517  16.142897
622  357.97778  16.14221
622.5  313.90073  16.141523
623  398.44496  16.140835
623.5  435.66256  16.140148
624  324.45227  16.13946
624.5  386.84588  16.138772
625  402.8804  16.138084
625.5  423.15396  16.137396
626  339.81793  16.136708
626.5  367.24312  16.136019
627  340.50024  16.135331
627.5  440.37828  16.134642
628  359.7181  16.133953
628.5  405.74691  16.133264
629  376.60101  16.132575
629.5  389.49336  16.131886
630  373.89267  16.131196
630.5  377.72934  16.130507
631  385.57955  16.129817
631.5  432.2602  16.129127
632  347.44438  16.128437
632.5  326.09728  16.127747
633  373.83725  16.127057
633.5  432.47015  16.126367
634  427.2569  16.125676
634.5  373.90198  16.124985
635  376.6862  16.124295
635.5  323.92546  16.123604
636  360.63208  16.122913
636.5  416.62658  16.122221
637  421.45462  16.12153
637.5  428.30397  16.120839
638  422.1931  16.120147
638.5  390.31852  16.119455
639  428.78863  16.118763
639.5  359.75346  16.118071
640  373.42311  16.117379
640.5  384.66717  16.116687
641  391.3898  16.115995
641.5  367.79444  16.115302
642  371.49494  16.11461
642.5  368.89239  16.113917
643  370.97053  16.113224
643.5  379.71334  16.112531
644  351.54456  16.111838
644.5  283.52462  16.111145
645  315.4597  16.110451
645.5  312.0375  16.109758
646  386.56683  16.109064
646.5  315.68001  16.108371
647  377.15102  16.107677
647.5  408.31827  16.106983
648  310.51467  16.106289
648.5  357.57562  16.105595
649  322.3876  16.1049
649.5  388.26423  16.104206
650  362.51596  16.103512
650.5  310.0135  16.102817
651  384.94026  16.102122
651.5  353.92471  16.101427
652  360.07713  16.100732
652.5  397.43361  16.100037
653  386.85621  16.099342
653.5  306.4863  16.098647
654  299.18838  16.097951
654.5  329.95421  16.097256
655  384.52001  16.09656
655.5  413.35583  16.095865
656  320.43685  16.095169
656.5  411.27701  16.094473
657  395.73326  16.093777
657.5  398.21805  16.093081
658  312.64505  16.092384
658.5  237.8882  16.091688
659  287.59876  16.090991
659.5  365.87886  16.090295
660  411.62692  16.089598
660.5  393.51043  16.088901
661  301.18563  16.088205
661.5  326.84465  16.087508
662  303.59708  16.086811
662.5  394.79402  16.086113
663  333.12755  16.085416
663.5  382.31913  16.084719
664  345.36024  16.084021
664.5  436.57139  16.083324
665  394.15871  16.082626
665.5  330.46851  16.081928
666  393.47252  16.081231
666.5  477.08226  16.080533
667  456.7373  16.079835
667.5  460.43337  16.079137
668  411.267  16.078438
668.5  317.31626  16.07774
669  337.53465  16.077042
669.5  276.58508  16.076343
670  423.6325  16.075645
670.5  455.73404  16.074946
671  372.27789  16.074247
671.5  361.53296  16.073548
672  392.77036  16.072849
672.5  383.40941  16.07215
673  408.24097  16.071451
673.5  323.6244  16.070752
674  300.28672  16.070053
674.5  322.88496  16.069353
675  413.76829  16.068654
675.5  373.08253  16.067954
676  322.9944  16.067255
676.5  297.72501  16.066555
677  375.79332  16.065855
677.5  395.45978  16.065156
678  420.26  16.064456
678.5  296.6966  16.063756
679  321.64495  16.063055
679.5  335.69314  16.062355
680  317.15098  16.061655
680.5  367.46972  16.060955
681  379.02948  16.060254
681.5  338.15412  16.059554
682  347.59365  16.058853
682.5  399.27498  16.058153
683  335.9438  16.057452
683.5  285.75654  16.056751
684  356.65565  16.05605
684.5  271.9718  16.055349
685  356.64589  16.054648
685.5  311.1862  16.053947
686  345.69136  16.053246
686.5  342.59413  16.052545
687  300.4151  16.051843
687.5  344.37501  16.051142
688  302.86286  16.050441
688.5  320.7601  16.049739
689  395.18738  16.049038
689.5  319.55378  16.048336
690  348.69544  16.047634
690.5  337.55803  16.046932
691  428.00188  16.046231
691.5  409.28066  16.045529
692  335.98066  16.044827
692.5  349.00206  16.044125
693  289.2254  16.043422
693.5  361.91718  16.04272
694  377.74917  16.042018
694.5  283.36878  16.041316
695  361.89614  16.040613
695.5  301.96914  16.039911
696  296.5259  16.039208
696.5  419.10232  16.038506
697  365.66116  16.037803
697.5  397.11006  16.0371
698  346.25831  16.036398
698.5  309.22529  16.035695
699  340.00908  16.034992
699.5  256.764  16.034289
700  327.27031  16.033586
700.5  311.3343  16.032883
701  364.94043  16.03218
701.5  367.36614  16.031477
702  262.64484  16.030773
702.5  299.9575  16.03007
703  408.75096  16.029367
703.5  370.78433  16.028663
704  304.35399  16.02796
704.5  350.71371  16.027256
705  396.64199  16.026553
705.5  322.25167  16.025849
706  334.15615  16.025146
706.5  315.68427  16.024442
707  256.54502  16.023738
707.5  369.19772  16.023034
708  335.35554  16.02233
708.5  353.50893  16.021626
709  332.3801  16.020922
709.5  272.09121  16.020218
710  391.60474  16.019514
710.5  330.04563  16.01881
711  378.50462  16.018106
711.5  334.70082  16.017402
712  301.72124  16.016698
712.5  310.05605  16.015993
713  298.99605  16.015289
713.5  300.12837  16.014584
714  250.52476  16.01388
714.5  230.4103  16.013175
715  299.3472  16.012471
715.5  283.72006  16.011766
716  241.05672  16.011062
716.5  322.08702  16.010357
717  355.30549  16.009652
717.5  330.47439  16.008947
718  261.1441  16.008243
718.5  241.48175  16.007538
719  267.37895  16.006833
719.5  317.10112  16.006128
720  292.81681  16.005423
720.5  306.34986  16.004718
721  311.34328  16.004013
721.5  303.79234  16.003308
722  354.31642  16.002603
722.5  253.44211  16.001897
723  289.39777  16.001192
723.5  299.36127  16.000487
724  316.56341  15.999782
724.5  340.33304  15.999076
725  347.51138  15.998371
725.5  256.63247  15.997665
726  218.8149  15.99696
726.5  316.99544  15.996254
727  338.31331  15.995549
727.5  353.2907  15.994843
728  377.16474  15.994138
728.5  334.8003  15.993432
729  332.89887  15.992726
729.5  261.05317  15.992021
730  289.66684  15.991315
730.5  332.77599  15.990609
731  296.03367  15.989903
731.5  336.25946  15.989198
732  321.55367  15.988492
732.5  248.99327  15.987786
733  282.40596  15.98708
733.5  378.05752  15.986374
734  383.99766  15.985668
734.5  305.95386  15.984962
735  276.04735  15.984256
735.5  295.97573  15.98355
736  352.27746  15.982844
736.5  443.87066  15.982138
737  279.40856  15.981431
737.5  188.82397  15.980725
738  240.11864  15.980019
738.5  273.02587  15.979313
739  347.7203  15.978607
739.5  393.40437  15.9779
740  333.91165  15.977194
740.5  272.3242  15.976488
741  321.94104  15.975781
741.5  367.28884  15.975075
742  360.0179  15.974368
742.5  235.77508  15.973662
743  257.48954  15.972955
743.5  306.34353  15.972249
744  390.07219  15.971542
744.5  433.25916  15.970836
745  291.1497  15.970129
745.5  324.62492  15.969423
746  386.93345  15.968716
746.5  320.52816  15.96801
747  313.41902  15.967303
747.5  308.51858  15.966596
748  242.05186  15.96589
748.5  318.55829  15.965183
749  313.87092  15.964476
749.5  318.67251  15.963769
750  369.35276  15.963063
750.5  331.76935  15.962356
751  293.91984  15.961649
751.5  327.35442  15.960942
752  370.53989  15.960235
752.5  330.48254  15.959528
753  365.19553  15.958822
753.5  307.67654  15.958115
754  270.72903  15.957408
754.5  261.01641  15.956701
755  255.28772  15.955994
755.5  234.46186  15.955287
756  258.46336  15.95458
756.5  272.02458  15.953873
757  255.76554  15.953166
757.5  282.72046  15.952459
758  277.57971  15.951752
758.5  308.56456  15.951045
759  291.29955  15.950338
759.5  224.24355  15.949631
760  260.43691  15.948924
760.5  330.34589  15.948217
761  349.19792  15.94751
761.5  246.34582  15.946803
762  239.95831  15.946095
762.5  276.36748  15.945388
763  317.75161  15.944681
763.5  336.7737  15.943974
764  304.01136  15.943267
764.5  288.21294  15.94256
765  330.76047  15.941853
765.5  386.7912  15.941145
766  334.50014  15.940438
766.5  267.01393  15.939731
767  338.81902  15.939024
767.5  394.83117  15.938317
768  339.43136  15.937609
768.5  280.05943  15.936902
769  297.65213  15.936195
769.5  299.68452  15.935488
770  391.80554  15.93478
770.5  229.66414  15.934073
771  235.06239  15.933366
771.5  354.17925  15.932659
772  335.39289  15.931951
772.5  354.12856  15.931244
773  324.41816  15.930537
773.5  226.54436  15.92983
774  337.18765  15.929122
774.5  231.77889  15.928415
775  214.58882  15.927708
775.5  263.06338  15.927
776  225.38241  15.926293
776.5  281.92821  15.925586
777  274.00106  15.924879
777.5  294.13021  15.924171
778  312.41413  15.923464
778.5  334.20305  15.922757
779  299.36254  15.922049
779.5  262.79361  15.921342
780  345.85632  15.920635
780.5  291.40475  15.919927
781  262.75745  15.91922
781.5  262.29281  15.918513
782  288.91939  15.917806
782.5  284.95866  15.917098
783  268.45135  15.916391
783.5  325.94216  15.915684
784  249.21735  15.914976
784.5  240.6557  15.914269
785  224.18011  15.913562
785.5  236.65475  15.912855
786  216.93262  15.912147
786.5  257.18647  15.91144
787  265.62023  15.910733
787.5  317.35587  15.910025
788  277.51278  15.909318
788.5  230.83746  15.908611
789  396.9593  15.907904
789.5  328.08688  15.907196
790  309.97653  15.906489
790.5  286.68783  15.905782
791  215.77428  15.905075
791.5  262.76161  15.904367
792  316.89177  15.90366
792.5  308.60046  15.902953
793  328.03573  15.902246
793.5  309.54892  15.901539
794  305.11825  15.900831
794.5  342.78068  15.900124
795  232.06016  15.899417
795.5  265.78381  15.89871
796  289.72633  15.898003
796.5  242.05523  15.897296
797  348.44156  15.896589
797.5  260.72963  15.895881
798  338.00275  15.895174
798.5  271.93868  15.894467
799  214.93066  15.89376
799.5  311.13918  15.893053
800  272.5302  15.892346
800.5  280.88447  15.891639
801  291.11591  15.890932
801.5  296.55474  15.890225
802  353.03919  15.889518
802.5  288.89858  15.888811
803  226.39404  15.888104
803.5  317.93044  15.887397
804  268.18708  15.88669
804.5  234.60241  15.885983
805  272.0697  15.885276
805.5  284.47004  15.884569
806  296.99321  15.883862
806.5  284.543  15.883155
807  313.97118  15.882448
807.5  244.42902  15.881741
808  282.6673  15.881035
808.5  252.6436  15.880328
809  277.61986  15.879621
809.5  309.02132  15.878914
810  232.46544  15.878207
810.5  274.45688  15.8775
811  358.65058  15.876794
811.5  299.00758  15.876087
812  308.38524  15.87538
812.5  267.73125  15.874673
813  251.47695  15.873967
813.5  252.89821  15.87326
814  310.71514  15.872553
814.5  294.35814  15.871847
815  261.54998  15.87114
815.5  269.93114  15.870433
816  199.18983  15.869727
816.5  243.12532  15.86902
817  290.66145  15.868314
817.5  319.51115  15.867607
818  358.30058  15.866901
818.5  313.67353  15.866194
819  298.28184  15.865488
819.5  277.38816  15.864781
820  288.32276  15.864075
820.5  251.14476  15.863368
821  235.70188  15.862662
821.5  307.06843  15.861956
822  283.16853  15.861249
822.5  298.14882  15.860543
823  243.73784  15.859837
823.5  256.01597  15.85913
824  277.12904  15.858424
824.5  229.13867  15.857718
825  280.39575  15.857012
825.5  268.5702  15.856305
826  224.46102  15.855599
826.5  257.65764  15.854893
827  230.06877  15.854187
827.5  286.63528  15.853481
828  330.12738  15.852775
828.5  302.47566  15.852069
829  253.90638  15.851363
829.5  254.39357  15.850657
830  259.18851  15.849951
830.5  265.49239  15.849245
831  299.53021  15.848539
831.5  377.70257  15.847833
832  358.6874  15.847127
832.5  338.92011  15.846421
833  333.5959  15.845715
833.5  334.16633  15.84501
834  194.01202  15.844304
834.5  233.60452  15.843598
835  202.22492  15.842892
835.5  242.65245  15.842187
836  223.85111  15.841481
836.5  250.83805  15.840775
837  261.25799  15.84007
837.5  330.20056  15.839364
838  349.38864  15.838659
838.5  281.29124  15.837953
839  283.79974  15.837248
839.5  321.38202  15.836542
840  304.98613  15.835837
840.5  274.36218  15.835131
841  213.3827  15.834426
841.5  175.51085  15.83372
842  229.40611  15.833015
842.5  273.72406  15.83231
843  320.33239  15.831605
843.5  226.82813  15.830899
844  360.9154  15.830194
844.5  262.41201  15.829489
845  316.40299  15.828784
845.5  301.92892  15.828079
846  272.29205  15.827374
846.5  295.96617  15.826669
847  360.47826  15.825964
847.5  278.524  15.825259
848  278.83264  15.824554
848.5  282.62112  15.823849
849  355.32246  15.823144
849.5  279.18172  15.822439
850  216.82257  15.821734
850.5  278.21722  15.821029
851  217.78174  15.820325
851.5  239.80258  15.81962
852  322.5522  15.818915
852.5  309.53506  15.818211
853  365.46039  15.817506
853.5  264.46336  15.816801
854  200.30977  15.816097
854.5  311.11536  15.815392
855  272.74934  15.814688
855.5  278.68188  15.813983
856  347.68072  15.813279
856.5  372.10475  15.812575
857  273.0418  15.81187
857.5  250.42386  15.811166
858  223.2678  15.810462
858.5  269.11546  15.809757
859  271.81415  15.809053
859.5  182.23894  15.808349
860  176.58518  15.807645
860.5  240.85257  15.806941
861  232.33349  15.806237
861.5  163.29597  15.805533
862  175.76567  15.804829
862.5  210.11852  15.804125
863  203.47716  15.803421
863.5  202.82156  15.802717
864  197.24252  15.802013
864.5  235.10883  15.801309
865  213.09534  15.800606
865.5  176.69994  15.799902
866  282.59232  15.799198
866.5  267.18864  15.798495
867  261.7457  15.797791
867.5  231.17634  15.797087
868  214.3428  15.796384
868.5  323.52758  15.79568
869  319.06057  15.794977
869.5  394.08874  15.794274
870  353.49997  15.79357
870.5  469.17323  15.792867
871  611.98675  15.792164
871.5  742.05769  15.79146
872  1190.5214  15.790757
872.5  1286.5258  15.790054
873  1160.9005  15.789351
873.5  1154.1147  15.788648
874  908.74599  15.787945
874.5  597.09416  15.787242
875  470.99404  15.786539
875.5  318.13347  15.785836
876  208.2089  15.785133
876.5  176.9696  15.78443
877  117.86701  15.783727
877.5  121.45862  15.783025
878  74.161548  15.782322
878.5  71.864015  15.781619
879  57.507385  15.780917
879.5  67.748172  15.780214
880  36.376508  15.779512
880.5  50.13232  15.778809
881  13.3684  15.778107
881.5  15.67472  15.777404
882  33.244836  15.776702
882.5  29.043064  15.776
883  44.056372  15.775297
883.5  29.161208  15.774595
884  72.33352  15.773893
884.5  56.33544  15.773191
885  68.50928  15.772489
885.5  154.35658  15.771787
886  184.09326  15.771085
886.5  141.80946  15.770383
887  192.56576  15.769681
887.5  117.89982  15.768979
888  97.957843  15.768277
888.5  196.1149  15.767575
889  275.9804  15.766874
889.5  253.91497  15.766172
890  310.94812  15.76547
890.5  264.46674  15.764769
891  321.89527  15.764067
891.5  343.7643  15.763366
892  307.55029  15.762664
892.5  182.13719  15.761963
893  218.12697  15.761261
893.5  156.65969  15.76056
894  71.18564  15.759859
894.5  59.13384  15.759158
895  12.142596  15.758457
895.5  9.111324  15.757755
896  0  15.757054
896.5  0  15.756353
897  0.0682552  15.755652
897.5  24.325301  15.754951
898  23.43664  15.754251
898.5  2.169804  15.75355
899  0  15.752849
899.5  0  15.752148
900  5.30068  15.751448
900.5  4.69932  15.750747
901  4.52596  15.750046
901.5  22.483792  15.749346
902  2.990248  15.748645
902.5  0  15.747945
903  8.427412  15.747244
903.5  1.572588  15.746544
904  0  15.745844
904.5  0  15.745144
905  1.3992  15.744443

