# Created by:        SpecsLab Prodigy, Version 4.84.1-r101483 
#
# XY-Serializer Export Settings:
#   Comment Prefix:           #
#   Output Meta Data:         yes
#   Energy Axis:              Kinetic Energy
#   Count Rate:               Counts per Second
#   Separate Scan Data:       no
#   Separate Channel Data:    no
#   External Channel Data:    yes
#   Transmission Function:    yes
#   Error Bar:                no
#   Operation Results:        yes
#   Time Zone Format:         UTC
#
# Group:                        L-serine pH 7 500 mM
#
# Region:                       VBM
# Spectrum ID:                  611
# Acquisition Date:             03/12/26 05:04:58 UTC
# Analysis Method:              XPS
# Analyzer:                     Phoibos
# Analyzer Lens:                LargeArea:3.5kV
# Analyzer Slit:                5:7x20\B:open
# Scan Mode:                    FixedAnalyzerTransmission
# Curves/Scan:                  1
# Values/Curve:                 251
# Dwell Time:                   0.1
# Excitation Energy:            1090
# Kinetic Energy:               1070
# Pass Energy:                  10
# Bias Voltage:                 220
# Detector Voltage:             1920
# Eff. Workfunction:            0
# Source:                       Monochromator
# Comment:                      

# Cycle: 0
#
# Number of Scans: 2

# Cycle: 0, Curve: 0
#
# Acquisition Date:             03/12/26 05:04:58 UTC
# ColumnLabels:                 energy counts/s transmission
#
1070  1.19995  7.0548104
1070.1  10.1239  7.0547101
1070.2  6.71045  7.0546097
1070.3  9.40415  7.0545093
1070.4  10.212945  7.054409
1070.5  11.148705  7.0543086
1070.6  6.2044  7.0542083
1070.7  6.8766  7.0541079
1070.8  4.31885  7.0540076
1070.9  4.14064  7.0539072
1071  11.285285  7.0538069
1071.1  6.195475  7.0537066
1071.2  5.3406  7.0536063
1071.3  8.038  7.053506
1071.4  4.18295  7.0534057
1071.5  0.81705  7.0533054
1071.6  2.940719  7.0532051
1071.7  12.059281  7.0531048
1071.8  0  7.0530045
1071.9  0  7.0529042
1072  4.059795  7.0528039
1072.1  3.076575  7.0527037
1072.2  6.064045  7.0526034
1072.3  11.799585  7.0525031
1072.4  0  7.0524029
1072.5  0.085319  7.0523026
1072.6  4.914681  7.0522024
1072.7  2.13637  7.0521022
1072.8  4.10213  7.0520019
1072.9  3.7615  7.0519017
1073  2.51925  7.0518015
1073.1  6.2853  7.0517013
1073.2  1.19545  7.051601
1073.3  4.059795  7.0515008
1073.4  9.617805  7.0514006
1073.5  11.3224  7.0513004
1073.6  6.5835  7.0512002
1073.7  5.0379  7.0511001
1073.8  3.3786  7.0509999
1073.9  0  7.0508997
1074  7.2083  7.0507995
1074.1  13.8179  7.0506994
1074.2  8.1189  7.0505992
1074.3  5.8549  7.050499
1074.4  9.873045  7.0503989
1074.5  9.2253  7.0502988
1074.6  13.889155  7.0501986
1074.7  11.03  7.0500985
1074.8  9.13995  7.0499984
1074.9  5.51945  7.0498982
1075  4.357365  7.0497981
1075.1  7.387135  7.049698
1075.2  7.3576  7.0495979
1075.3  2.30185  7.0494978
1075.4  6.11085  7.0493977
1075.5  16.749045  7.0492976
1075.6  24.2259  7.0491975
1075.7  16.761055  7.0490974
1075.8  1.4129  7.0489974
1075.9  14.36255  7.0488973
1076  17.34412  7.0487972
1076.1  11.62963  7.0486972
1076.2  6.2763  7.0485971
1076.3  8.328125  7.048497
1076.4  14.795975  7.048397
1076.5  22.561515  7.048297
1076.6  14.39148  7.0481969
1076.7  25.170005  7.0480969
1076.8  15.34945  7.0479969
1076.9  33.8424  7.0478969
1077  13.08485  7.0477968
1077.1  18.034245  7.0476968
1077.2  12.04655  7.0475968
1077.3  7.442205  7.0474968
1077.4  4.65115  7.0473968
1077.5  15.73244  7.0472968
1077.6  11.79576  7.0471969
1077.7  21.9197  7.0470969
1077.8  25.59515  7.0469969
1077.9  22.90212  7.0468969
1078  20.480925  7.046797
1078.1  15.770305  7.046697
1078.2  6.15245  7.0465971
1078.3  4.187425  7.0464971
1078.4  9.523525  7.0463972
1078.5  11.32759  7.0462973
1078.6  17.217205  7.0461973
1078.7  32.260275  7.0460974
1078.8  28.29708  7.0459975
1078.9  8.639019  7.0458976
1079  25.548381  7.0457977
1079.1  34.864025  7.0456977
1079.2  33.506375  7.0455979
1079.3  19.063569  7.045498
1079.4  20.6003  7.0453981
1079.5  23.208681  7.0452982
1079.6  21.27635  7.0451983
1079.7  28.20795  7.0450984
1079.8  23.75395  7.0449986
1079.9  17.79105  7.0448987
1080  14.438905  7.0447988
1080.1  28.335614  7.044699
1080.2  18.068321  7.0445991
1080.3  40.89796  7.0444993
1080.4  21.84256  7.0443995
1080.5  29.52349  7.0442996
1080.6  31.042715  7.0441998
1080.7  12.893219  7.0441
1080.8  37.259566  7.0440002
1080.9  13.25475  7.0439004
1081  35.50745  7.0438006
1081.1  43.12845  7.0437008
1081.2  49.093215  7.043601
1081.3  35.8632  7.0435012
1081.4  16.748335  7.0434014
1081.5  13.76595  7.0433016
1081.6  13.37035  7.0432018
1081.7  24.3581  7.0431021
1081.8  36.7528  7.0430023
1081.9  14.4079  7.0429025
1082  7.13635  7.0428028
1082.1  14.18745  7.042703
1082.2  9.48505  7.0426033
1082.3  20.77465  7.0425035
1082.4  10.208465  7.0424038
1082.5  32.29813  7.0423041
1082.6  18.94415  7.0422044
1082.7  14.187445  7.0421046
1082.8  11.87661  7.0420049
1082.9  28.932205  7.0419052
1083  16.846295  7.0418055
1083.1  6.659965  7.0417058
1083.2  22.863604  7.0416061
1083.3  13.714731  7.0415064
1083.4  14.40415  7.0414068
1083.5  19.64745  7.0413071
1083.6  24.5823  7.0412074
1083.7  6.32755  7.0411078
1083.8  7.523765  7.0410081
1083.9  10.382885  7.0409084
1084  7.8681  7.0408088
1084.1  1.3231  7.0407091
1084.2  0  7.0406095
1084.3  4.787745  7.0405099
1084.4  6.318655  7.0404102
1084.5  9.57475  7.0403106
1084.6  6.7105  7.040211
1084.7  8.80005  7.0401114
1084.8  3.8083  7.0400118
1084.9  4.9532  7.0399122
1085  0.0468  7.0398126
1085.1  8.33254  7.039713
1085.2  14.39971  7.0396134
1085.3  3.63385  7.0395138
1085.4  3.6339  7.0394142
1085.5  7.48145  7.0393147
1085.6  6.3231  7.0392151
1085.7  4.1021  7.0391155
1085.8  10.978745  7.039016
1085.9  2.480705  7.0389164
1086  3.6339  7.0388169
1086.1  0  7.0387173
1086.2  3.9277  7.0386178
1086.3  5.132095  7.0385183
1086.4  6.744555  7.0384187
1086.5  4.19565  7.0383192
1086.6  0  7.0382197
1086.7  6.31935  7.0381202
1086.8  12.52815  7.0380207
1086.9  6.4931  7.0379212
1087  10.2174  7.0378217
1087.1  7.0889  7.0377222
1087.2  2.438419  7.0376227
1087.3  4.914681  7.0375232
1087.4  2.00425  7.0374238
1087.5  3.71925  7.0373243
1087.6  5.259715  7.0372248
1087.7  4.016785  7.0371254
1087.8  0.59585  7.0370259
1087.9  9.78325  7.0369265
1088  16.58732  7.036827
1088.1  7.94448  7.0367276
1088.2  7.221  7.0366282
1088.3  2.8681  7.0365287
1088.4  3.75775  7.0364293
1088.5  21.71565  7.0363299
1088.6  7.560865  7.0362305
1088.7  1.965735  7.0361311
1088.8  5.936445  7.0360317
1088.9  4.063555  7.0359323
1089  1.75345  7.0358329
1089.1  3.24655  7.0357335
1089.2  0  7.0356341
1089.3  3.93215  7.0355347
1089.4  1.06785  7.0354354
1089.5  0  7.035336
1089.6  0  7.0352366
1089.7  0  7.0351373
1089.8  2.264  7.0350379
1089.9  6.6637  7.0349386
1090  9.541215  7.0348392
1090.1  17.302075  7.0347399
1090.2  4.22901  7.0346406
1090.3  2.217245  7.0345413
1090.4  8.378605  7.0344419
1090.5  10.59585  7.0343426
1090.6  6.71045  7.0342433
1090.7  3.97895  7.034144
1090.8  6.153165  7.0340447
1090.9  5.382885  7.0339454
1091  1.58285  7.0338461
1091.1  2.65135  7.0337468
1091.2  3.45505  7.0336476
1091.3  3.8936  7.0335483
1091.4  4.14511  7.033449
1091.5  13.974465  7.0333498
1091.6  1.880425  7.0332505
1091.7  2.39165  7.0331512
1091.8  5.855565  7.033052
1091.9  6.752785  7.0329528
1092  0  7.0328535
1092.1  0  7.0327543
1092.2  2.13637  7.0326551
1092.3  2.86363  7.0325558
1092.4  0  7.0324566
1092.5  3.6769  7.0323574
1092.6  16.026185  7.0322582
1092.7  7.173565  7.032159
1092.8  3.12335  7.0320598
1092.9  0  7.0319606
1093  4.400365  7.0318614
1093.1  5.599635  7.0317622
1093.2  2.39165  7.0316631
1093.3  7.18315  7.0315639
1093.4  4.1874  7.0314647
1093.5  6.2378  7.0313656
1093.6  3.71545  7.0312664
1093.7  13.03355  7.0311673
1093.8  3.251  7.0310681
1093.9  0  7.030969
1094  4.83005  7.0308699
1094.1  0.16995  7.0307707
1094.2  0  7.0306716
1094.3  0  7.0305725
1094.4  0  7.0304734
1094.5  4.9577  7.0303743
1094.6  4.102095  7.0302752
1094.7  0.940205  7.0301761
1094.8  2.264  7.030077
1094.9  3.5916  7.0299779
1095  4.229719  7.0298788

