# Created by:        SpecsLab Prodigy, Version 4.84.1-r101483 
#
# XY-Serializer Export Settings:
#   Comment Prefix:           #
#   Output Meta Data:         yes
#   Energy Axis:              Kinetic Energy
#   Count Rate:               Counts per Second
#   Separate Scan Data:       no
#   Separate Channel Data:    no
#   External Channel Data:    yes
#   Transmission Function:    yes
#   Error Bar:                no
#   Operation Results:        yes
#   Time Zone Format:         UTC
#
# Group:                        L-serine pH 7 500 mM
#
# Region:                       O 1s 100
# Spectrum ID:                  629
# Acquisition Date:             03/12/26 06:48:10 UTC
# Analysis Method:              XPS
# Analyzer:                     Phoibos
# Analyzer Lens:                LargeArea:3.5kV
# Analyzer Slit:                5:7x20\B:open
# Scan Mode:                    FixedAnalyzerTransmission
# Curves/Scan:                  1
# Values/Curve:                 151
# Dwell Time:                   0.1
# Excitation Energy:            630
# Kinetic Energy:               90
# Pass Energy:                  10
# Bias Voltage:                 220
# Detector Voltage:             1920
# Eff. Workfunction:            0
# Source:                       Monochromator
# Comment:                      

# Cycle: 0
#
# Number of Scans: 4

# Cycle: 0, Curve: 0
#
# Acquisition Date:             03/12/26 06:48:10 UTC
# ColumnLabels:                 energy counts/s transmission
#
90  81.74335  8.1221682
90.1  82.456957  8.1223662
90.2  64.884728  8.1225636
90.3  61.485595  8.1227602
90.4  60.987207  8.1229561
90.5  81.142505  8.1231513
90.6  61.793543  8.1233458
90.7  58.66763  8.1235395
90.8  64.585148  8.1237326
90.9  69.115505  8.1239249
91  63.399402  8.1241166
91.1  53.649072  8.1243075
91.2  78.015343  8.1244978
91.3  50.579932  8.1246873
91.4  64.300882  8.1248762
91.5  82.439883  8.1250643
91.6  62.181395  8.1252518
91.7  71.733764  8.1254386
91.8  69.662083  8.1256246
91.9  70.232122  8.12581
92  95.549079  8.1259947
92.1  71.539187  8.1261788
92.2  72.32888  8.1263621
92.3  71.103153  8.1265448
92.4  60.541185  8.1267267
92.5  90.251482  8.126908
92.6  93.568257  8.1270887
92.7  94.087293  8.1272686
92.8  98.712187  8.1274479
92.9  77.963505  8.1276265
93  75.979362  8.1278045
93.1  94.172177  8.1279818
93.2  95.700278  8.1281584
93.3  87.530266  8.1283343
93.4  121.90486  8.1285096
93.5  112.2318  8.1286842
93.6  100.13582  8.1288582
93.7  126.47285  8.1290315
93.8  177.82362  8.1292042
93.9  167.72344  8.1293762
94  206.97241  8.1295476
94.1  187.79381  8.1297183
94.2  247.37203  8.1298884
94.3  272.59112  8.1300578
94.4  341.57223  8.1302265
94.5  474.23997  8.1303947
94.6  615.94661  8.1305622
94.7  802.71218  8.130729
94.8  1318.5005  8.1308952
94.9  2013.9753  8.1310608
95  3087.3892  8.1312258
95.1  4383.5535  8.1313901
95.2  5894.6706  8.1315538
95.3  6796.4854  8.1317168
95.4  6619.0513  8.1318792
95.5  5399.232  8.132041
95.6  3519.129  8.1322022
95.7  1897.0018  8.1323628
95.8  935.20755  8.1325227
95.9  491.65213  8.132682
96  330.95264  8.1328407
96.1  218.7048  8.1329988
96.2  229.50179  8.1331563
96.3  257.70528  8.1333131
96.4  252.51978  8.1334693
96.5  236.71509  8.133625
96.6  247.04536  8.13378
96.7  283.94687  8.1339344
96.8  289.55562  8.1340882
96.9  292.94367  8.1342414
97  263.53494  8.134394
97.1  289.97326  8.134546
97.2  270.78221  8.1346974
97.3  251.90896  8.1348482
97.4  260.36144  8.1349984
97.5  243.01254  8.135148
97.6  211.64763  8.1352971
97.7  220.03733  8.1354455
97.8  200.89749  8.1355933
97.9  150.52012  8.1357406
98  166.45164  8.1358872
98.1  155.37449  8.1360333
98.2  117.11677  8.1361788
98.3  112.09589  8.1363237
98.4  120.99557  8.136468
98.5  78.981997  8.1366118
98.6  87.232018  8.1367549
98.7  76.634137  8.1368975
98.8  69.143661  8.1370395
98.9  71.489955  8.137181
99  61.780358  8.1373219
99.1  62.194685  8.1374622
99.2  46.943135  8.1376019
99.3  64.904054  8.137741
99.4  80.425247  8.1378796
99.5  75.876006  8.1380177
99.6  52.641525  8.1381551
99.7  41.311147  8.138292
99.8  62.53487  8.1384284
99.9  62.831648  8.1385641
100  73.659875  8.1386994
100.1  49.016085  8.138834
100.2  57.826122  8.1389681
100.3  56.085223  8.1391017
100.4  69.610394  8.1392347
100.5  50.067631  8.1393671
100.6  63.385462  8.139499
100.7  55.40422  8.1396304
100.8  52.059145  8.1397612
100.9  48.621677  8.1398914
101  44.756972  8.1400211
101.1  56.966415  8.1401503
101.2  54.463508  8.1402789
101.3  54.066874  8.140407
101.4  61.848065  8.1405345
101.5  51.496077  8.1406616
101.6  45.558711  8.140788
101.7  48.994454  8.140914
101.8  67.302205  8.1410394
101.9  58.331565  8.1411642
102  54.421455  8.1412886
102.1  51.748142  8.1414124
102.2  48.033452  8.1415356
102.3  58.43723  8.1416584
102.4  59.8756  8.1417806
102.5  60.054248  8.1419023
102.6  50.8041  8.1420235
102.7  44.332098  8.1421441
102.8  44.851223  8.1422642
102.9  58.509132  8.1423838
103  36.777373  8.1425029
103.1  38.14508  8.1426215
103.2  49.459865  8.1427396
103.3  52.387545  8.1428571
103.4  43.358992  8.1429741
103.5  39.889393  8.1430906
103.6  45.323912  8.1432066
103.7  59.500577  8.1433221
103.8  65.096756  8.1434371
103.9  63.104822  8.1435516
104  65.298556  8.1436655
104.1  57.645303  8.143779
104.2  28.734382  8.143892
104.3  43.486981  8.1440044
104.4  37.76666  8.1441164
104.5  52.501952  8.1442278
104.6  56.19133  8.1443388
104.7  49.070263  8.1444492
104.8  48.04491  8.1445592
104.9  61.138367  8.1446687
105  62.748856  8.1447776

